(30, 31, 97, 229, 188, 40, 176, 55)
(30, 33, 87, 248, 162, 41, 178, 48)
(28, 34, 78, 250, 137, 39, 154, 52)
(30, 33, 71, 234, 125, 40, 136, 49)
(28, 33, 67, 230, 102, 37, 151, 44)
(28, 31, 58, 293, 92, 39, 128, 43)
(28, 32, 61, 311, 75, 38, 127, 44)
(27, 30, 65, 327, 79, 40, 136, 37)
(28, 33, 63, 326, 72, 37, 139, 38)
(26, 30, 60, 352, 70, 36, 144, 39)
(27, 29, 60, 322, 75, 37, 152, 43)
(27, 26, 54, 292, 74, 38, 149, 40)
(29, 28, 57, 269, 70, 37, 133, 40)
(27, 26, 54, 276, 69, 38, 133, 41)
(27, 31, 61, 252, 75, 38, 123, 40)
(28, 33, 57, 237, 77, 37, 108, 37)
(28, 34, 56, 243, 77, 36, 154, 46)
(29, 32, 50, 239, 82, 39, 156, 45)
(29, 33, 60, 243, 83, 40, 150, 43)
(29, 32, 62, 263, 81, 41, 159, 43)
(28, 31, 62, 255, 70, 43, 167, 42)
(30, 31, 61, 240, 69, 44, 120, 33)
(29, 32, 60, 238, 55, 41, 123, 32)
(29, 30, 51, 221, 54, 43, 148, 37)
(27, 28, 42, 175, 49, 44, 129, 36)
(26, 28, 41, 175, 64, 40, 127, 39)
(25, 29, 43, 217, 63, 37, 133, 38)
(24, 30, 42, 208, 61, 41, 137, 42)
(24, 31, 43, 204, 69, 39, 105, 37)
(28, 29, 40, 201, 67, 37, 105, 38)
(30, 30, 41, 187, 52, 36, 98, 35)
(30, 30, 42, 157, 58, 37, 136, 44)
(32, 30, 43, 207, 58, 33, 122, 40)
(31, 27, 40, 212, 50, 33, 126, 41)
(31, 30, 49, 214, 54, 33, 148, 44)
(28, 28, 49, 209, 56, 36, 151, 43)
(28, 28, 46, 190, 58, 42, 117, 37)
(28, 30, 46, 127, 59, 41, 135, 43)
(28, 35, 48, 142, 61, 42, 139, 43)
(26, 36, 41, 128, 61, 43, 119, 41)
(27, 36, 40, 151, 61, 46, 121, 43)
(26, 37, 39, 148, 56, 38, 143, 45)
(24, 37, 41, 158, 54, 38, 141, 39)
(25, 33, 49, 173, 54, 36, 141, 40)
(26, 30, 48, 196, 47, 33, 135, 37)
(26, 33, 52, 210, 43, 34, 139, 37)
(25, 31, 56, 243, 50, 37, 119, 32)
(26, 30, 55, 236, 57, 37, 100, 30)
(24, 33, 49, 225, 52, 37, 108, 34)
(24, 33, 51, 213, 57, 45, 120, 36)
(23, 32, 48, 193, 58, 41, 118, 37)
(23, 33, 55, 156, 57, 39, 115, 36)
(23, 33, 53, 172, 53, 39, 124, 39)
(24, 31, 53, 184, 59, 41, 117, 35)
(27, 31, 55, 187, 61, 34, 111, 36)
(26, 32, 57, 213, 64, 36, 110, 38)
(28, 30, 51, 210, 64, 38, 111, 38)
(29, 30, 50, 203, 62, 39, 101, 34)
(28, 30, 52, 179, 63, 38, 96, 36)
(27, 28, 48, 169, 59, 41, 117, 42)
(28, 27, 44, 133, 57, 41, 109, 37)
(30, 28, 42, 140, 50, 42, 103, 37)
(28, 28, 42, 147, 62, 51, 108, 38)
(28, 28, 40, 150, 59, 57, 126, 39)
(28, 29, 38, 142, 57, 55, 98, 29)
(27, 28, 36, 137, 56, 57, 106, 31)
(24, 27, 42, 155, 63, 56, 122, 34)
(23, 31, 47, 158, 61, 47, 118, 33)
(25, 29, 48, 154, 60, 41, 107, 31)
(26, 29, 51, 156, 62, 40, 104, 30)
(25, 28, 54, 157, 66, 35, 123, 34)
(29, 31, 49, 134, 58, 36, 119, 32)
(29, 25, 47, 125, 51, 37, 116, 33)
(29, 27, 50, 148, 61, 36, 109, 34)
(30, 26, 51, 163, 64, 38, 126, 36)
(30, 29, 51, 171, 65, 38, 106, 32)
(28, 26, 52, 165, 71, 38, 94, 30)
(29, 28, 49, 156, 70, 36, 93, 30)
(28, 29, 47, 135, 66, 39, 134, 34)
(26, 30, 42, 139, 68, 39, 128, 34)
(27, 28, 42, 120, 64, 39, 125, 32)
(27, 32, 40, 138, 63, 44, 135, 32)
(25, 30, 45, 174, 65, 44, 134, 32)
(26, 29, 44, 170, 59, 41, 95, 29)
(27, 32, 48, 162, 53, 40, 93, 26)
(28, 33, 51, 172, 59, 40, 108, 27)
(28, 32, 53, 170, 62, 39, 97, 27)
(29, 33, 51, 145, 61, 39, 104, 28)
(59, 65, 36, 51, 54, 58, 174, 39)
(78, 99, 37, 56, 61, 65, 220, 42)
(96, 119, 38, 57, 66, 62, 245, 48)
(105, 140, 43, 54, 70, 71, 253, 51)
(107, 149, 44, 48, 69, 82, 253, 50)
(115, 156, 41, 49, 63, 94, 261, 58)
(105, 149, 39, 46, 56, 96, 231, 57)
(100, 149, 42, 48, 58, 104, 201, 52)
(106, 155, 40, 46, 58, 103, 214, 52)
(114, 164, 43, 51, 59, 104, 214, 53)
(107, 168, 46, 53, 58, 128, 189, 43)
(108, 181, 48, 51, 61, 123, 202, 45)
(106, 177, 45, 47, 55, 122, 196, 46)
(99, 176, 44, 50, 55, 120, 182, 46)
(86, 171, 40, 48, 57, 116, 184, 50)
(97, 179, 42, 50, 58, 87, 236, 57)
(98, 166, 42, 51, 56, 92, 266, 61)
(94, 167, 45, 52, 57, 92, 272, 64)
(92, 157, 49, 54, 71, 94, 273, 65)
(109, 172, 50, 54, 72, 88, 306, 68)
(103, 166, 45, 51, 78, 76, 309, 63)
(102, 156, 45, 53, 80, 72, 280, 63)
(100, 166, 44, 50, 86, 65, 293, 62)
(98, 162, 41, 47, 73, 58, 287, 60)
(76, 130, 45, 154, 68, 68, 242, 51)
(65, 107, 48, 228, 78, 70, 183, 49)
(62, 105, 68, 275, 101, 123, 168, 41)
(53, 73, 92, 317, 134, 260, 120, 37)
(42, 64, 112, 381, 170, 409, 94, 33)
(42, 67, 123, 377, 207, 503, 82, 37)
(42, 75, 169, 537, 247, 517, 74, 38)
(38, 79, 179, 576, 413, 509, 76, 40)
(41, 83, 182, 569, 561, 459, 85, 43)
(45, 87, 233, 701, 704, 333, 85, 50)
(48, 93, 239, 743, 730, 156, 103, 62)
(47, 84, 221, 701, 753, 114, 112, 70)
(49, 81, 239, 863, 703, 109, 127, 70)
(48, 74, 232, 910, 658, 119, 139, 67)
(45, 66, 180, 827, 535, 155, 160, 68)
(40, 56, 180, 814, 519, 162, 174, 56)
(44, 61, 187, 854, 498, 162, 171, 51)
(44, 61, 152, 684, 463, 165, 168, 55)
(42, 67, 165, 672, 399, 150, 207, 62)
(41, 67, 172, 765, 413, 120, 224, 61)
(43, 66, 160, 781, 432, 113, 251, 69)
(38, 61, 141, 675, 439, 107, 302, 73)
(53, 66, 136, 649, 440, 94, 317, 77)
(85, 82, 112, 587, 429, 91, 364, 88)
(128, 179, 82, 388, 361, 79, 412, 97)
(347, 308, 68, 271, 288, 65, 459, 150)
(436, 416, 60, 222, 215, 54, 502, 201)
(567, 490, 59, 157, 200, 59, 530, 313)
(595, 530, 68, 138, 134, 60, 569, 338)
(679, 609, 68, 117, 135, 72, 700, 455)
(685, 687, 87, 105, 129, 91, 742, 460)
(675, 723, 104, 114, 136, 136, 788, 461)
(646, 739, 103, 111, 147, 231, 888, 428)
(675, 807, 119, 111, 141, 249, 952, 439)
(608, 781, 125, 108, 181, 248, 991, 341)
(546, 782, 131, 113, 196, 247, 1054, 386)
(503, 761, 118, 104, 210, 226, 1015, 387)
(435, 724, 123, 110, 204, 126, 939, 387)
(365, 645, 105, 106, 208, 95, 882, 384)
(351, 601, 98, 103, 182, 95, 721, 381)
(298, 499, 76, 101, 172, 85, 554, 319)
(296, 428, 85, 109, 142, 87, 587, 326)
(254, 400, 88, 130, 150, 84, 546, 280)
(217, 352, 89, 193, 166, 103, 442, 231)
(165, 325, 119, 453, 153, 114, 424, 198)
(147, 232, 123, 582, 191, 115, 384, 176)
(112, 165, 177, 805, 244, 125, 225, 88)
(81, 132, 239, 985, 343, 128, 208, 78)
(79, 124, 307, 1157, 528, 111, 210, 73)
(81, 132, 346, 1255, 677, 106, 184, 73)
(95, 154, 461, 1482, 830, 127, 193, 83)
(97, 167, 507, 1488, 942, 127, 206, 87)
(94, 171, 525, 1480, 988, 285, 208, 85)
(90, 174, 536, 1420, 933, 342, 200, 83)
(85, 174, 535, 1360, 947, 382, 182, 78)
(70, 160, 491, 1261, 915, 727, 161, 68)
(62, 148, 498, 1339, 830, 767, 177, 68)
(64, 141, 469, 1301, 762, 760, 187, 72)
(63, 134, 427, 1333, 758, 736, 207, 74)
(63, 118, 405, 1287, 669, 716, 221, 73)
(63, 111, 347, 1110, 529, 355, 240, 73)
(64, 96, 230, 848, 458, 253, 280, 73)
(216, 105, 190, 727, 409, 96, 286, 103)
(338, 312, 160, 487, 337, 84, 386, 192)
(516, 416, 130, 353, 211, 72, 539, 269)
(642, 530, 122, 240, 165, 73, 642, 562)
(725, 671, 113, 197, 184, 77, 682, 633)
(728, 723, 113, 152, 196, 79, 819, 685)
(698, 765, 113, 137, 212, 73, 892, 745)
(668, 928, 151, 120, 203, 80, 887, 737)
(612, 945, 154, 115, 223, 90, 927, 586)
(613, 1000, 165, 108, 217, 92, 931, 546)
(607, 1017, 179, 109, 264, 100, 843, 523)
(629, 961, 187, 109, 276, 102, 891, 483)
(570, 766, 151, 103, 277, 95, 904, 519)
(537, 678, 136, 106, 279, 89, 851, 566)
(498, 463, 127, 108, 275, 82, 829, 572)
(484, 355, 101, 103, 225, 69, 822, 550)
(435, 303, 81, 100, 191, 66, 649, 487)
(390, 280, 94, 241, 185, 59, 531, 422)
(346, 268, 129, 319, 167, 54, 434, 293)
(215, 201, 155, 465, 221, 54, 374, 198)
(143, 134, 170, 523, 258, 52, 297, 116)
(116, 120, 192, 689, 408, 58, 239, 88)
(102, 119, 190, 769, 434, 69, 200, 72)
(84, 90, 212, 916, 488, 77, 156, 73)
(71, 87, 249, 1055, 514, 76, 141, 67)
(67, 87, 269, 1163, 760, 76, 143, 68)
(72, 86, 321, 1185, 814, 79, 164, 68)
(66, 87, 347, 1254, 887, 121, 148, 65)
(64, 87, 349, 1238, 911, 141, 141, 54)
(66, 87, 323, 1128, 921, 148, 138, 56)
(63, 86, 304, 1022, 742, 161, 158, 58)
(53, 81, 263, 1032, 643, 161, 140, 53)
(47, 73, 229, 895, 596, 131, 143, 48)
(48, 70, 203, 817, 520, 107, 157, 51)
(43, 62, 185, 761, 462, 96, 171, 47)
(38, 56, 177, 727, 431, 70, 156, 46)
(43, 61, 123, 510, 377, 66, 263, 57)
(142, 151, 109, 439, 231, 66, 348, 125)
(356, 300, 73, 276, 201, 63, 447, 408)
(437, 534, 71, 190, 176, 66, 545, 602)
(527, 568, 68, 142, 144, 69, 610, 678)
(597, 655, 92, 120, 135, 73, 661, 747)
(632, 655, 98, 102, 134, 68, 723, 777)
(580, 646, 107, 98, 155, 70, 798, 704)
(538, 520, 106, 94, 163, 78, 778, 622)
(493, 552, 112, 95, 165, 75, 832, 589)
(534, 480, 98, 85, 166, 81, 874, 580)
(548, 529, 103, 82, 162, 83, 940, 573)
(549, 484, 99, 85, 152, 84, 915, 579)
(541, 460, 94, 82, 156, 73, 904, 538)
(546, 431, 87, 82, 166, 76, 868, 514)
(455, 400, 84, 83, 157, 65, 766, 474)
(364, 318, 69, 81, 153, 62, 639, 478)
(320, 318, 59, 75, 142, 55, 572, 450)
(311, 282, 61, 90, 123, 52, 545, 408)
(228, 184, 87, 132, 138, 49, 493, 374)
(158, 169, 95, 153, 139, 45, 494, 302)
(152, 136, 112, 266, 141, 45, 416, 192)
(88, 94, 117, 320, 143, 48, 349, 116)
(74, 76, 139, 405, 156, 56, 317, 94)
(71, 73, 138, 504, 162, 60, 235, 66)
(52, 72, 166, 580, 186, 65, 197, 62)
(51, 72, 208, 799, 199, 69, 181, 65)
(48, 70, 212, 857, 222, 77, 123, 54)
(46, 61, 223, 963, 234, 79, 127, 53)
(40, 62, 233, 1034, 296, 75, 102, 48)
(39, 63, 237, 1041, 356, 75, 102, 47)
(35, 58, 205, 936, 418, 71, 93, 43)
(35, 62, 221, 989, 458, 63, 87, 41)
(35, 63, 203, 900, 454, 57, 74, 40)
(38, 68, 207, 869, 429, 62, 79, 43)
(36, 57, 183, 894, 385, 58, 71, 38)
(33, 57, 174, 839, 331, 59, 67, 36)
(34, 48, 145, 757, 286, 57, 66, 38)
(35, 54, 144, 735, 280, 62, 69, 39)
(34, 45, 112, 668, 288, 62, 61, 35)
(35, 46, 109, 617, 285, 60, 108, 39)
(35, 46, 112, 668, 286, 59, 113, 41)
(32, 52, 125, 705, 294, 60, 127, 47)
(31, 45, 117, 682, 299, 54, 176, 52)
(29, 44, 108, 623, 270, 50, 241, 64)
(33, 54, 134, 672, 306, 56, 260, 69)
(37, 61, 130, 595, 282, 58, 270, 71)
(155, 92, 125, 467, 240, 81, 319, 78)
(353, 186, 126, 450, 231, 85, 346, 120)
(451, 227, 127, 439, 221, 93, 436, 151)
(588, 422, 116, 226, 149, 104, 459, 231)
(712, 506, 114, 195, 199, 110, 596, 492)
(740, 619, 119, 160, 204, 105, 680, 559)
(795, 683, 125, 137, 210, 117, 810, 659)
(774, 718, 128, 109, 223, 114, 882, 711)
(734, 656, 111, 91, 214, 107, 902, 730)
(662, 691, 131, 95, 171, 108, 894, 694)
(642, 615, 132, 91, 168, 103, 886, 684)
(522, 594, 133, 90, 168, 100, 829, 752)
(500, 563, 132, 88, 177, 103, 843, 726)
(446, 553, 144, 85, 197, 100, 898, 719)
(393, 489, 138, 83, 198, 93, 921, 654)
(390, 474, 133, 80, 194, 87, 910, 644)
(388, 400, 122, 76, 187, 76, 886, 516)
(402, 393, 128, 71, 160, 70, 791, 522)
(405, 361, 115, 67, 138, 65, 765, 479)
(459, 323, 121, 66, 127, 65, 706, 448)
(455, 336, 121, 65, 132, 70, 717, 424)
(431, 337, 128, 61, 134, 68, 675, 368)
(404, 312, 126, 68, 123, 63, 654, 321)
(389, 315, 120, 92, 123, 67, 573, 350)
(317, 273, 114, 114, 157, 61, 499, 323)
(266, 219, 132, 259, 169, 60, 364, 286)
(221, 173, 174, 466, 218, 56, 343, 215)
(197, 165, 212, 606, 296, 57, 265, 173)
(134, 137, 264, 756, 353, 56, 230, 80)
(83, 113, 297, 892, 390, 61, 211, 76)
(82, 110, 329, 1038, 493, 70, 208, 72)
(86, 122, 377, 1212, 639, 90, 185, 74)
(87, 129, 439, 1326, 720, 111, 180, 73)
(87, 124, 451, 1344, 813, 131, 155, 65)
(84, 124, 459, 1324, 874, 155, 163, 66)
(79, 118, 462, 1322, 930, 158, 175, 67)
(60, 105, 446, 1277, 868, 156, 189, 64)
(50, 90, 428, 1157, 863, 156, 189, 64)
(52, 97, 441, 1291, 907, 161, 201, 70)
(52, 100, 416, 1341, 847, 145, 204, 68)
(46, 106, 412, 1271, 744, 134, 231, 68)
(53, 108, 380, 1168, 744, 132, 236, 68)
(52, 97, 314, 1176, 661, 124, 235, 66)
(47, 96, 269, 967, 516, 105, 248, 59)
(47, 98, 282, 973, 530, 106, 294, 63)
(45, 90, 240, 934, 539, 115, 272, 63)
(39, 87, 237, 938, 528, 111, 291, 69)
(39, 89, 224, 865, 567, 107, 392, 75)
(38, 82, 171, 789, 506, 98, 420, 82)
(39, 82, 124, 559, 465, 90, 414, 83)
(77, 96, 103, 494, 416, 81, 427, 95)
(239, 129, 62, 256, 332, 77, 439, 127)
(495, 209, 58, 174, 215, 77, 408, 234)
(576, 260, 59, 144, 165, 74, 470, 306)
(687, 378, 57, 97, 139, 73, 470, 427)
(734, 420, 63, 83, 146, 73, 552, 470)
(723, 485, 73, 82, 146, 76, 564, 485)
(604, 522, 81, 71, 143, 83, 558, 498)
(584, 543, 99, 69, 154, 86, 624, 545)
(508, 548, 106, 77, 179, 95, 745, 541)
(472, 555, 103, 77, 185, 99, 771, 513)
(474, 551, 104, 70, 197, 97, 814, 522)
(572, 502, 114, 87, 187, 85, 873, 508)
(643, 466, 102, 92, 205, 87, 902, 472)
(723, 447, 98, 97, 201, 79, 870, 442)
(743, 489, 120, 99, 211, 70, 863, 537)
(746, 478, 120, 99, 203, 70, 926, 628)
(733, 563, 145, 96, 261, 79, 885, 672)
(701, 584, 178, 91, 263, 75, 841, 706)
(622, 571, 191, 101, 256, 75, 827, 710)
(598, 528, 183, 101, 252, 82, 817, 670)
(614, 493, 178, 101, 281, 79, 720, 593)
(540, 400, 151, 94, 249, 74, 721, 521)
(451, 424, 112, 94, 220, 75, 680, 443)
(389, 370, 94, 129, 237, 70, 621, 376)
(354, 322, 97, 165, 234, 63, 525, 312)
(256, 299, 115, 238, 201, 63, 459, 249)
(192, 266, 129, 299, 198, 57, 382, 217)
(157, 124, 143, 374, 215, 56, 270, 158)
(129, 94, 168, 453, 209, 64, 198, 127)
(92, 87, 181, 551, 304, 64, 192, 108)
(81, 89, 199, 660, 317, 72, 170, 93)
(77, 82, 209, 709, 344, 83, 161, 82)
(66, 83, 231, 848, 391, 97, 133, 73)
(60, 83, 230, 950, 397, 104, 159, 71)
(57, 102, 227, 959, 333, 127, 172, 63)
(54, 101, 229, 945, 370, 130, 183, 61)
(51, 103, 233, 1030, 366, 145, 184, 62)
(50, 102, 209, 981, 346, 166, 205, 62)
(51, 93, 201, 993, 341, 171, 189, 58)
(41, 74, 194, 986, 341, 181, 185, 57)
(38, 67, 170, 998, 304, 185, 183, 54)
(37, 69, 152, 916, 285, 177, 204, 54)
(39, 68, 144, 873, 281, 155, 184, 52)
(36, 81, 138, 784, 297, 149, 180, 52)
(37, 115, 150, 785, 297, 126, 172, 51)
(35, 136, 142, 710, 272, 114, 167, 48)
(36, 138, 132, 700, 278, 103, 161, 51)
(34, 142, 133, 672, 250, 97, 146, 48)
(35, 148, 131, 640, 236, 101, 142, 46)
(33, 132, 106, 566, 223, 88, 135, 44)
(34, 136, 103, 532, 231, 92, 175, 52)
(50, 137, 96, 447, 203, 87, 161, 47)
(92, 178, 84, 381, 177, 87, 282, 74)
(145, 231, 61, 235, 143, 82, 324, 122)
(286, 254, 60, 178, 134, 85, 379, 473)
(424, 301, 58, 152, 140, 91, 471, 618)
(591, 350, 75, 120, 164, 104, 613, 715)
(724, 430, 78, 126, 173, 111, 637, 813)
(761, 443, 82, 123, 183, 114, 685, 878)
(753, 477, 88, 113, 185, 114, 772, 805)
(720, 466, 97, 117, 194, 113, 901, 787)
(620, 468, 88, 122, 188, 124, 836, 762)
(493, 463, 100, 123, 200, 139, 868, 690)
(472, 522, 111, 129, 226, 133, 962, 683)
(530, 522, 114, 137, 270, 150, 984, 709)
(545, 566, 112, 141, 275, 151, 908, 676)
(527, 572, 123, 140, 267, 145, 916, 633)
(590, 538, 115, 154, 268, 133, 907, 646)
(619, 583, 116, 155, 257, 142, 869, 613)
(549, 580, 117, 154, 222, 137, 813, 533)
(523, 547, 114, 142, 201, 130, 744, 465)
(527, 515, 101, 138, 199, 118, 744, 444)
(416, 489, 98, 110, 189, 109, 685, 384)
(306, 321, 96, 142, 172, 92, 536, 297)
(266, 249, 96, 196, 191, 67, 429, 249)
(186, 174, 115, 269, 216, 72, 387, 215)
(113, 152, 147, 351, 225, 81, 307, 183)
(93, 132, 200, 444, 240, 87, 238, 134)
(75, 100, 211, 517, 248, 97, 220, 95)
(66, 99, 230, 662, 280, 116, 204, 84)
(60, 94, 245, 770, 297, 123, 135, 67)
(53, 83, 247, 812, 331, 118, 126, 58)
(52, 76, 224, 919, 387, 127, 126, 52)
(51, 78, 233, 1061, 502, 137, 128, 52)
(44, 75, 230, 1061, 533, 130, 113, 47)
(44, 72, 213, 1001, 590, 126, 109, 45)
(41, 71, 213, 1017, 599, 141, 112, 45)
(38, 69, 203, 935, 575, 130, 110, 45)
(36, 59, 181, 793, 493, 111, 93, 41)
(36, 62, 160, 691, 453, 105, 84, 41)
(37, 67, 158, 696, 389, 98, 85, 39)
(35, 58, 133, 706, 362, 68, 98, 37)
(35, 61, 120, 645, 360, 73, 124, 40)
(35, 62, 109, 557, 349, 76, 166, 42)
(38, 60, 96, 525, 331, 73, 207, 43)
(79, 84, 79, 454, 282, 77, 328, 91)
(273, 112, 62, 216, 256, 76, 357, 311)
(495, 132, 63, 173, 219, 70, 437, 636)
(562, 157, 69, 150, 214, 99, 641, 814)
(671, 169, 72, 135, 212, 107, 695, 1016)
(679, 255, 81, 131, 215, 123, 753, 1202)
(654, 261, 81, 116, 222, 131, 838, 1223)
(561, 267, 78, 120, 217, 142, 878, 1149)
(514, 273, 71, 115, 191, 137, 862, 1096)
(382, 282, 68, 135, 185, 147, 893, 1004)
(407, 238, 60, 141, 180, 154, 894, 856)
(425, 256, 67, 144, 200, 164, 851, 838)
(437, 259, 84, 147, 206, 158, 869, 856)
(522, 288, 88, 148, 215, 151, 909, 836)
(579, 339, 104, 126, 205, 144, 897, 775)
(554, 366, 109, 120, 219, 130, 893, 713)
(528, 352, 108, 111, 191, 118, 917, 683)
(493, 345, 98, 99, 177, 112, 847, 592)
(379, 310, 96, 82, 161, 100, 681, 511)
(271, 241, 87, 110, 163, 86, 603, 431)
(270, 150, 101, 149, 153, 75, 497, 380)
(232, 133, 134, 216, 187, 60, 351, 283)
(156, 113, 154, 256, 228, 74, 288, 188)
(143, 96, 203, 327, 351, 111, 257, 143)
(115, 80, 234, 415, 382, 133, 225, 131)
(86, 103, 269, 481, 463, 150, 201, 111)
(72, 99, 290, 557, 586, 298, 225, 106)
(67, 98, 297, 657, 659, 313, 264, 129)
(68, 108, 285, 742, 651, 317, 273, 134)
(70, 112, 271, 800, 702, 341, 286, 139)
(68, 90, 243, 816, 672, 359, 272, 130)
(64, 93, 223, 906, 575, 290, 255, 119)
(61, 91, 214, 887, 497, 283, 224, 92)
(56, 87, 194, 857, 460, 277, 287, 83)
(46, 92, 193, 846, 385, 241, 289, 75)
(41, 91, 177, 795, 364, 210, 331, 75)
(42, 101, 164, 721, 359, 168, 406, 77)
(43, 103, 152, 669, 359, 150, 433, 75)
(44, 99, 144, 593, 342, 140, 397, 78)
(44, 88, 123, 467, 345, 135, 404, 76)
(43, 83, 118, 458, 321, 121, 401, 90)
(87, 61, 82, 262, 291, 115, 368, 238)
(280, 95, 66, 190, 244, 113, 433, 462)
(426, 146, 61, 156, 228, 107, 568, 674)
(612, 174, 55, 129, 135, 105, 619, 719)
(656, 233, 60, 103, 128, 105, 674, 759)
(757, 247, 69, 97, 136, 88, 875, 857)
(740, 274, 71, 93, 164, 105, 936, 826)
(761, 296, 74, 94, 159, 126, 930, 733)
(703, 319, 74, 100, 173, 134, 944, 740)
(712, 350, 77, 107, 196, 141, 977, 741)
(632, 418, 83, 113, 217, 151, 935, 616)
(740, 478, 110, 123, 201, 146, 941, 625)
(714, 480, 112, 130, 228, 131, 965, 656)
(683, 471, 119, 136, 228, 121, 942, 654)
(697, 482, 120, 137, 230, 122, 929, 639)
(737, 523, 119, 130, 237, 116, 835, 628)
(657, 468, 99, 121, 245, 107, 738, 598)
(621, 460, 94, 112, 214, 99, 660, 530)
(584, 454, 87, 99, 202, 100, 638, 469)
(506, 392, 79, 93, 184, 90, 538, 436)
(406, 235, 78, 134, 150, 76, 461, 414)
(293, 193, 93, 198, 133, 68, 404, 308)
(191, 133, 116, 276, 212, 73, 319, 191)
(128, 98, 148, 345, 262, 76, 278, 166)
(116, 86, 181, 413, 319, 107, 248, 124)
(85, 76, 204, 568, 351, 113, 198, 99)
(78, 88, 270, 749, 396, 151, 207, 92)
(68, 91, 273, 776, 392, 162, 179, 87)
(69, 90, 279, 841, 420, 195, 151, 86)
(72, 100, 283, 897, 565, 219, 141, 80)
(68, 95, 279, 864, 613, 236, 146, 75)
(50, 86, 245, 792, 604, 235, 133, 64)
(49, 84, 235, 754, 600, 248, 172, 68)
(46, 83, 222, 720, 585, 236, 213, 66)
(40, 71, 198, 686, 477, 208, 210, 65)
(40, 71, 182, 673, 419, 191, 262, 70)
(38, 59, 130, 582, 406, 168, 367, 87)
(37, 56, 125, 574, 397, 131, 411, 87)
(38, 53, 106, 520, 457, 120, 422, 88)
(40, 50, 90, 426, 394, 109, 446, 91)
(41, 45, 82, 318, 477, 108, 456, 94)
(39, 42, 79, 280, 493, 108, 418, 83)
(38, 41, 80, 280, 507, 111, 381, 75)
(37, 41, 65, 206, 428, 92, 396, 80)
(52, 41, 61, 172, 419, 84, 422, 99)
(57, 52, 55, 152, 276, 68, 548, 140)
(130, 83, 56, 135, 219, 65, 615, 152)
(167, 89, 58, 96, 149, 66, 717, 254)
(220, 105, 66, 81, 156, 77, 812, 283)
(327, 135, 93, 101, 199, 98, 922, 446)
(359, 200, 103, 114, 223, 108, 956, 532)
(430, 222, 117, 150, 274, 112, 1024, 588)
(476, 255, 120, 155, 292, 129, 1073, 662)
(602, 346, 133, 176, 291, 135, 1112, 742)
(615, 366, 128, 193, 288, 137, 1153, 738)
(617, 395, 134, 196, 305, 147, 1145, 751)
(700, 489, 126, 179, 286, 149, 1160, 838)
(740, 574, 153, 190, 286, 140, 1080, 808)
(726, 592, 145, 174, 278, 136, 1025, 749)
(712, 577, 141, 150, 249, 130, 910, 692)
(707, 541, 131, 140, 231, 118, 909, 657)
(592, 481, 128, 127, 199, 111, 805, 502)
(529, 391, 90, 101, 168, 100, 815, 425)
(409, 492, 102, 96, 163, 92, 775, 394)
(365, 562, 100, 84, 163, 82, 718, 351)
(349, 574, 101, 87, 116, 69, 581, 245)
(305, 545, 104, 109, 131, 65, 488, 184)
(235, 523, 107, 153, 138, 62, 391, 148)
(179, 330, 88, 197, 145, 63, 250, 94)
(111, 177, 96, 265, 167, 69, 212, 79)
(72, 120, 128, 352, 189, 87, 152, 55)
(71, 123, 173, 547, 229, 91, 129, 43)
(75, 123, 233, 716, 341, 117, 105, 44)
(68, 117, 256, 897, 590, 147, 97, 42)
(66, 117, 286, 1098, 619, 153, 112, 45)
(86, 129, 408, 1232, 731, 174, 138, 54)
(88, 131, 442, 1289, 790, 183, 146, 61)
(81, 110, 422, 1282, 802, 175, 147, 62)
(83, 112, 437, 1263, 755, 162, 187, 67)
(81, 110, 444, 1207, 800, 168, 306, 68)
(59, 93, 338, 1072, 819, 145, 363, 79)
(62, 83, 293, 1019, 841, 155, 401, 93)
(62, 85, 282, 947, 841, 152, 423, 107)
(57, 81, 245, 831, 753, 138, 431, 109)
(54, 78, 191, 663, 719, 120, 396, 114)
(55, 71, 167, 627, 630, 121, 359, 112)
(39, 60, 119, 469, 531, 91, 435, 104)
(43, 74, 116, 415, 459, 86, 438, 93)
(47, 78, 90, 351, 440, 84, 487, 141)
(151, 100, 78, 290, 380, 89, 491, 186)
(252, 296, 76, 274, 301, 75, 531, 507)
(424, 368, 68, 193, 251, 85, 621, 684)
(533, 442, 71, 149, 230, 85, 714, 904)
(630, 502, 86, 145, 223, 110, 810, 1192)
(813, 687, 108, 158, 220, 139, 918, 1333)
(884, 691, 167, 154, 226, 189, 1007, 1297)
(866, 762, 189, 147, 230, 205, 981, 1330)
(936, 828, 199, 152, 284, 230, 1060, 1262)
(942, 935, 226, 159, 294, 242, 1025, 1108)
(885, 943, 224, 167, 348, 258, 969, 998)
(902, 978, 202, 158, 330, 232, 901, 964)
(895, 982, 192, 165, 335, 226, 952, 890)
(961, 926, 187, 160, 313, 223, 872, 857)
(954, 831, 152, 152, 315, 200, 854, 706)
(876, 726, 148, 121, 279, 165, 829, 656)
(783, 622, 121, 120, 271, 157, 785, 652)
(754, 483, 104, 109, 256, 144, 676, 544)
(479, 423, 97, 145, 226, 109, 549, 455)
(352, 318, 122, 299, 242, 105, 455, 450)
(295, 168, 126, 383, 291, 96, 378, 380)
(231, 130, 153, 503, 385, 101, 336, 296)
(155, 115, 191, 661, 476, 121, 184, 240)
(107, 102, 231, 814, 604, 157, 175, 182)
(99, 110, 318, 1007, 687, 203, 167, 155)
(91, 112, 356, 1193, 699, 218, 170, 97)
(88, 120, 376, 1254, 692, 224, 179, 90)
(90, 130, 374, 1270, 707, 221, 189, 82)
(87, 140, 402, 1321, 695, 240, 190, 72)
(72, 125, 359, 1290, 789, 217, 170, 69)
(66, 115, 339, 1181, 789, 229, 154, 71)
(61, 107, 313, 1114, 810, 227, 135, 65)
(49, 94, 302, 1117, 789, 228, 121, 61)
(42, 71, 234, 992, 724, 186, 107, 59)
(44, 65, 185, 822, 572, 171, 140, 57)
(40, 61, 144, 707, 550, 129, 170, 46)
(39, 52, 127, 650, 493, 116, 238, 62)
(38, 49, 107, 442, 462, 98, 269, 67)
(47, 45, 84, 306, 475, 91, 351, 85)
(54, 106, 73, 255, 406, 95, 383, 147)
(159, 140, 111, 207, 349, 94, 406, 220)
(210, 196, 164, 142, 313, 98, 481, 539)
(309, 216, 175, 138, 257, 101, 589, 593)
(422, 243, 175, 129, 173, 98, 568, 796)
(539, 275, 176, 113, 160, 105, 620, 894)
(560, 297, 151, 112, 163, 120, 784, 940)
(601, 374, 96, 108, 161, 152, 847, 877)
(670, 505, 86, 119, 159, 155, 872, 892)
(662, 581, 107, 132, 180, 180, 941, 858)
(620, 608, 118, 139, 219, 181, 1060, 850)
(617, 664, 135, 152, 252, 187, 1044, 864)
(616, 699, 134, 155, 278, 189, 1002, 875)
(724, 695, 151, 161, 312, 210, 971, 905)
(740, 685, 154, 147, 307, 196, 988, 809)
(837, 708, 170, 153, 286, 203, 926, 761)
(825, 654, 162, 137, 275, 194, 898, 696)
(807, 589, 171, 130, 248, 167, 857, 604)
(621, 502, 153, 117, 200, 133, 811, 510)
(555, 427, 141, 119, 182, 121, 707, 471)
(322, 317, 131, 164, 189, 92, 559, 366)
(303, 307, 158, 241, 238, 83, 371, 312)
(245, 252, 153, 373, 269, 88, 333, 264)
(215, 209, 179, 424, 402, 99, 282, 185)
(172, 183, 191, 537, 481, 109, 227, 109)
(147, 169, 220, 656, 523, 141, 173, 98)
(119, 132, 218, 677, 538, 148, 166, 73)
(96, 109, 255, 768, 575, 148, 130, 68)
(71, 106, 264, 857, 535, 159, 128, 62)
(62, 100, 306, 946, 581, 162, 123, 64)
(52, 85, 287, 935, 556, 150, 120, 57)
(52, 84, 291, 1035, 642, 169, 171, 68)
(47, 79, 273, 1001, 606, 173, 164, 67)
(42, 65, 253, 976, 582, 166, 154, 65)
(41, 59, 202, 872, 517, 170, 159, 61)
(41, 56, 196, 853, 502, 161, 175, 59)
(40, 59, 167, 733, 357, 137, 167, 53)
(40, 62, 137, 637, 362, 122, 190, 56)
(40, 59, 121, 523, 388, 108, 222, 66)
(36, 53, 86, 444, 345, 87, 337, 79)
(55, 69, 65, 306, 360, 80, 378, 108)
(205, 211, 54, 175, 320, 82, 398, 268)
(515, 267, 58, 141, 295, 97, 493, 469)
(628, 339, 63, 120, 241, 102, 619, 560)
(763, 393, 77, 134, 202, 120, 726, 755)
(789, 478, 91, 132, 212, 124, 834, 937)
(809, 507, 99, 128, 238, 119, 985, 1020)
(761, 545, 116, 140, 256, 122, 1053, 994)
(777, 566, 126, 135, 262, 166, 1147, 1011)
(801, 599, 141, 140, 297, 197, 1180, 938)
(827, 590, 140, 143, 290, 207, 1171, 873)
(832, 560, 150, 149, 299, 217, 1144, 784)
(849, 602, 145, 141, 307, 218, 1109, 804)
(781, 619, 135, 142, 298, 186, 1010, 783)
(638, 569, 128, 120, 272, 148, 906, 712)
(595, 558, 126, 127, 284, 152, 818, 586)
(552, 539, 108, 117, 258, 136, 694, 547)
(370, 433, 95, 112, 221, 126, 591, 426)
(314, 321, 101, 142, 213, 121, 452, 293)
(277, 296, 152, 398, 273, 111, 349, 286)
(216, 196, 210, 522, 324, 93, 304, 228)
(140, 175, 268, 594, 360, 125, 212, 153)
(113, 150, 299, 798, 416, 144, 154, 118)
(92, 139, 328, 888, 448, 167, 160, 112)
(88, 140, 373, 957, 520, 179, 154, 95)
(83, 133, 376, 1058, 556, 196, 174, 83)
(64, 112, 370, 1096, 649, 197, 166, 72)
(63, 110, 375, 1067, 677, 205, 170, 70)
(64, 112, 354, 1096, 791, 207, 141, 63)
(59, 100, 294, 1008, 755, 214, 137, 61)
(54, 82, 255, 852, 701, 202, 132, 57)
(50, 77, 208, 800, 634, 183, 134, 55)
(39, 54, 152, 662, 612, 163, 150, 55)
(56, 52, 137, 477, 435, 134, 183, 70)
(125, 126, 102, 391, 383, 112, 287, 329)
(459, 246, 87, 349, 382, 112, 344, 530)
(665, 564, 111, 229, 335, 138, 619, 742)
(764, 715, 115, 182, 296, 166, 753, 832)
(913, 796, 118, 168, 282, 174, 858, 1004)
(1045, 821, 129, 156, 283, 189, 933, 1087)
(1013, 836, 133, 165, 278, 198, 1057, 1048)
(1047, 722, 123, 163, 280, 189, 1002, 1072)
(1031, 727, 145, 173, 282, 186, 1000, 1046)
(952, 902, 159, 166, 286, 196, 994, 932)
(835, 1007, 186, 164, 290, 180, 931, 788)
(846, 1097, 196, 164, 299, 172, 855, 745)
(736, 1107, 192, 160, 300, 172, 832, 561)
(708, 1076, 175, 135, 244, 145, 755, 489)
(655, 902, 162, 121, 229, 124, 659, 397)
(616, 764, 125, 128, 212, 118, 630, 380)
(483, 579, 118, 167, 185, 102, 522, 361)
(329, 484, 142, 246, 179, 77, 409, 228)
(208, 330, 153, 277, 241, 75, 350, 211)
(141, 216, 157, 383, 307, 79, 309, 183)
(104, 146, 181, 505, 357, 92, 272, 139)
(88, 118, 207, 601, 405, 116, 223, 107)
(77, 118, 281, 832, 419, 128, 199, 93)
(72, 106, 338, 1058, 425, 163, 156, 76)
(66, 104, 412, 1196, 453, 177, 151, 74)
(62, 107, 443, 1308, 446, 188, 146, 63)
(76, 116, 481, 1367, 470, 241, 150, 63)
(75, 112, 454, 1359, 509, 264, 183, 69)
(73, 101, 413, 1220, 496, 263, 190, 72)
(71, 101, 353, 1110, 436, 259, 198, 72)
(67, 93, 306, 1019, 404, 252, 208, 71)
(46, 64, 226, 893, 325, 191, 236, 72)
(57, 81, 187, 719, 209, 150, 220, 65)
(68, 86, 177, 680, 186, 114, 229, 60)
(83, 103, 149, 595, 181, 100, 239, 58)
(124, 142, 123, 400, 175, 93, 286, 78)
(149, 171, 97, 357, 163, 87, 372, 85)
(233, 294, 80, 252, 168, 97, 497, 349)
(297, 320, 68, 184, 138, 94, 520, 425)
(427, 349, 56, 131, 127, 91, 540, 496)
(526, 381, 61, 118, 119, 98, 607, 586)
(578, 426, 66, 95, 121, 101, 590, 651)
(640, 464, 67, 83, 106, 92, 567, 572)
(676, 517, 72, 84, 116, 99, 636, 600)
(663, 666, 88, 100, 139, 118, 687, 578)
(672, 705, 89, 98, 147, 116, 646, 617)
(746, 813, 137, 101, 151, 124, 760, 570)
(792, 828, 166, 120, 203, 128, 828, 666)
(968, 999, 258, 153, 309, 189, 859, 771)
(1167, 1048, 291, 174, 336, 234, 992, 818)
(1214, 1057, 295, 180, 360, 235, 1022, 763)
(1290, 1030, 309, 186, 380, 236, 1023, 849)
(1330, 1040, 323, 195, 389, 254, 967, 874)
(1316, 934, 258, 172, 331, 218, 958, 769)
(1211, 809, 219, 144, 358, 171, 897, 785)
(1134, 767, 220, 143, 338, 185, 909, 813)
(1001, 693, 185, 136, 323, 182, 885, 743)
(927, 614, 136, 105, 294, 154, 861, 628)
(753, 488, 140, 101, 282, 146, 804, 639)
(635, 456, 136, 101, 199, 138, 785, 582)
(645, 474, 140, 96, 209, 124, 758, 526)
(609, 469, 131, 99, 205, 116, 678, 492)
(595, 546, 136, 113, 204, 125, 713, 522)
(667, 760, 201, 117, 224, 143, 778, 484)
(674, 784, 206, 122, 262, 158, 720, 456)
(682, 807, 201, 124, 256, 163, 660, 426)
(707, 806, 207, 117, 252, 190, 682, 417)
(660, 779, 216, 106, 260, 207, 680, 411)
(603, 573, 175, 106, 235, 195, 608, 436)
(561, 532, 247, 105, 193, 181, 544, 409)
(623, 567, 291, 107, 186, 189, 616, 448)
(728, 638, 289, 107, 182, 279, 621, 483)
(736, 611, 306, 105, 157, 378, 566, 483)
(737, 606, 295, 105, 175, 408, 527, 437)
(972, 575, 237, 114, 179, 450, 564, 441)
(1026, 469, 184, 106, 188, 483, 566, 415)
(1094, 436, 173, 103, 194, 448, 553, 398)
(1302, 394, 118, 105, 197, 360, 743, 369)
(1406, 369, 113, 107, 177, 352, 915, 381)
(1326, 366, 104, 114, 164, 299, 1150, 352)
(1232, 341, 94, 191, 164, 257, 1360, 317)
(1084, 156, 102, 239, 181, 216, 1360, 265)
(781, 146, 103, 254, 177, 211, 1340, 215)
(492, 106, 99, 265, 182, 174, 1291, 117)
(158, 89, 100, 274, 209, 165, 1051, 96)
(127, 73, 88, 247, 198, 112, 693, 72)
(93, 54, 75, 216, 172, 125, 635, 54)
(68, 47, 68, 201, 168, 132, 433, 48)
(68, 49, 81, 229, 177, 157, 128, 41)
(61, 48, 99, 316, 188, 254, 99, 41)
(69, 73, 184, 491, 329, 326, 90, 38)
(82, 85, 233, 663, 386, 652, 83, 42)
(86, 90, 258, 762, 397, 683, 85, 43)
(86, 94, 270, 795, 398, 684, 114, 46)
(82, 92, 266, 795, 385, 657, 112, 45)
(70, 75, 227, 722, 286, 624, 125, 44)
(51, 64, 184, 645, 218, 371, 122, 42)
(46, 59, 156, 552, 193, 543, 124, 40)
(47, 52, 131, 503, 177, 562, 100, 37)
(46, 53, 143, 554, 177, 559, 102, 36)
(49, 56, 135, 599, 153, 560, 86, 36)
(44, 51, 122, 530, 143, 499, 91, 34)
(42, 50, 125, 574, 146, 225, 87, 36)
(36, 49, 123, 576, 144, 133, 88, 35)
(35, 46, 110, 594, 135, 131, 95, 38)
(30, 39, 103, 553, 142, 125, 96, 38)
(30, 37, 106, 553, 140, 122, 88, 37)
(32, 35, 90, 498, 152, 111, 82, 37)
(31, 32, 84, 492, 151, 103, 76, 37)
(33, 34, 73, 357, 151, 97, 62, 32)
(32, 34, 63, 309, 140, 93, 60, 31)
(31, 37, 51, 282, 196, 68, 56, 36)
(32, 38, 103, 241, 195, 70, 55, 33)
(38, 50, 108, 208, 196, 74, 45, 41)
(81, 77, 131, 160, 193, 76, 46, 72)
(106, 142, 136, 114, 191, 83, 53, 92)
(126, 173, 142, 91, 127, 83, 54, 117)
(136, 191, 112, 86, 106, 92, 56, 120)
(197, 211, 112, 83, 103, 92, 59, 122)
(218, 258, 86, 66, 97, 108, 52, 110)
(217, 299, 78, 56, 101, 125, 40, 96)
(220, 306, 69, 56, 91, 127, 40, 65)
(221, 303, 68, 46, 89, 121, 39, 59)
(177, 289, 61, 41, 120, 114, 35, 50)
(135, 254, 59, 53, 198, 97, 42, 39)
(121, 173, 87, 127, 335, 74, 57, 37)
(99, 137, 100, 175, 346, 65, 58, 31)
(104, 196, 102, 181, 397, 65, 83, 136)
(93, 201, 109, 189, 445, 71, 87, 163)
(104, 198, 107, 203, 535, 71, 86, 175)
(126, 224, 82, 178, 516, 62, 83, 178)
(126, 255, 65, 139, 595, 68, 91, 180)
(113, 221, 63, 152, 611, 64, 72, 126)
(111, 218, 65, 175, 644, 58, 75, 91)
(106, 212, 64, 168, 583, 63, 75, 71)
(79, 187, 65, 172, 568, 72, 73, 70)
(78, 136, 62, 171, 494, 69, 68, 67)
(77, 104, 59, 158, 456, 72, 65, 62)
(77, 97, 46, 141, 473, 70, 65, 61)
(66, 86, 57, 161, 482, 67, 63, 56)
(60, 67, 74, 165, 464, 67, 63, 46)
(61, 57, 74, 163, 448, 63, 58, 41)
(56, 78, 79, 163, 434, 65, 65, 49)
(52, 77, 79, 147, 310, 68, 57, 47)
(50, 77, 72, 118, 260, 68, 57, 46)
(50, 78, 56, 113, 229, 57, 57, 45)
(39, 80, 67, 139, 253, 59, 63, 45)
(42, 55, 63, 138, 248, 56, 58, 36)
(46, 55, 74, 151, 286, 61, 62, 34)
(46, 51, 80, 155, 270, 65, 63, 33)
(46, 44, 77, 142, 284, 68, 59, 30)
(47, 42, 68, 115, 283, 65, 54, 29)
(46, 46, 68, 114, 297, 62, 52, 28)
(56, 42, 56, 99, 237, 56, 49, 29)
(60, 43, 42, 88, 230, 54, 55, 28)
(66, 48, 48, 85, 223, 61, 56, 30)
(97, 79, 49, 78, 206, 61, 54, 31)
(115, 113, 53, 73, 180, 75, 94, 40)
(196, 223, 53, 68, 197, 92, 108, 63)
