(173, 38, 255, 473, 330, 198, 151, 302)
(99, 41, 192, 379, 284, 154, 127, 267)
(80, 45, 178, 300, 244, 125, 110, 193)
(65, 49, 148, 240, 257, 95, 100, 148)
(44, 55, 111, 191, 272, 69, 79, 104)
(44, 54, 92, 282, 249, 59, 96, 85)
(43, 61, 106, 332, 250, 50, 106, 83)
(42, 58, 98, 353, 248, 47, 110, 70)
(63, 61, 101, 390, 200, 50, 119, 78)
(63, 58, 105, 388, 162, 48, 134, 113)
(74, 56, 98, 317, 162, 48, 117, 180)
(82, 53, 84, 263, 169, 56, 109, 265)
(139, 60, 85, 237, 187, 62, 111, 308)
(218, 66, 78, 223, 176, 72, 108, 520)
(378, 93, 69, 265, 241, 89, 163, 618)
(636, 107, 79, 384, 324, 91, 305, 696)
(950, 158, 247, 641, 809, 196, 592, 907)
(1139, 209, 355, 1156, 1076, 251, 856, 969)
(1308, 232, 388, 1290, 1217, 478, 1075, 995)
(1344, 248, 434, 1475, 1364, 563, 1178, 987)
(1339, 579, 956, 1579, 1433, 915, 1345, 1000)
(1241, 844, 1223, 1697, 1473, 949, 1393, 1016)
(1125, 936, 1332, 1543, 1440, 1207, 1557, 1158)
(1062, 1246, 1539, 1591, 1547, 1291, 1674, 1111)
(1129, 1327, 1722, 1532, 1488, 1482, 1753, 1203)
(1122, 1260, 1563, 1502, 1469, 1465, 1678, 1278)
(1089, 1208, 1450, 1360, 1294, 1513, 1615, 1268)
(1188, 1249, 1456, 1271, 1210, 1380, 1479, 1261)
(1213, 1040, 1281, 1101, 1086, 1295, 1248, 1295)
(1136, 1054, 1116, 1028, 1098, 1138, 1082, 1334)
(1160, 1120, 1075, 979, 1096, 969, 1071, 1320)
(1120, 1081, 973, 997, 1124, 882, 1073, 1235)
(1025, 1010, 829, 1053, 1143, 792, 951, 1087)
(994, 957, 834, 1204, 1050, 747, 903, 1006)
(1006, 901, 724, 1267, 1041, 637, 859, 801)
(951, 820, 675, 1246, 1103, 555, 753, 609)
(1050, 787, 661, 1250, 1209, 531, 645, 476)
(1010, 912, 599, 1402, 1485, 545, 540, 428)
(867, 887, 473, 1326, 1579, 473, 473, 402)
(844, 931, 404, 1205, 1512, 389, 413, 342)
(986, 1233, 356, 1151, 1411, 380, 372, 304)
(1124, 1379, 252, 1030, 1454, 489, 389, 290)
(1304, 1503, 208, 593, 1088, 577, 391, 220)
(1433, 1508, 355, 460, 1094, 692, 569, 287)
(1489, 1504, 440, 499, 1282, 728, 697, 580)
(1382, 1235, 455, 516, 1392, 747, 719, 609)
(1248, 1012, 459, 506, 1266, 653, 731, 608)
(1044, 567, 458, 504, 1251, 525, 686, 656)
(850, 496, 353, 413, 1078, 351, 546, 625)
(651, 181, 246, 305, 841, 241, 401, 387)
(538, 81, 221, 228, 628, 160, 386, 354)
(267, 64, 214, 213, 344, 121, 328, 342)
(182, 51, 233, 232, 312, 96, 341, 236)
(129, 48, 236, 233, 216, 111, 342, 220)
(105, 48, 233, 232, 160, 192, 332, 196)
(97, 51, 222, 223, 142, 192, 319, 177)
(84, 55, 205, 206, 131, 193, 293, 171)
(69, 58, 178, 181, 110, 192, 269, 150)
(64, 56, 152, 162, 84, 181, 241, 129)
(56, 57, 121, 138, 67, 99, 195, 111)
(56, 57, 96, 103, 65, 85, 156, 99)
(53, 55, 80, 90, 66, 77, 134, 90)
(42, 62, 72, 80, 75, 74, 118, 84)
(42, 63, 72, 74, 80, 72, 108, 83)
(45, 63, 63, 66, 78, 48, 97, 79)
(45, 63, 65, 68, 88, 49, 99, 81)
(43, 62, 62, 66, 92, 49, 94, 80)
(42, 55, 63, 67, 104, 51, 93, 85)
(44, 52, 66, 65, 115, 47, 91, 81)
(42, 54, 79, 67, 133, 46, 91, 86)
(46, 56, 84, 68, 151, 43, 97, 87)
(49, 60, 91, 72, 167, 42, 106, 91)
(51, 58, 101, 77, 179, 41, 107, 91)
(62, 55, 98, 81, 208, 42, 111, 95)
(65, 55, 98, 81, 225, 41, 113, 94)
(70, 48, 100, 83, 235, 43, 106, 105)
(78, 46, 100, 85, 245, 42, 101, 109)
(87, 50, 97, 86, 256, 43, 102, 116)
(84, 52, 103, 85, 255, 42, 104, 110)
(98, 51, 109, 91, 265, 43, 109, 113)
(110, 57, 114, 92, 267, 42, 115, 106)
(111, 57, 123, 91, 264, 44, 113, 107)
(111, 59, 129, 91, 251, 45, 117, 108)
(116, 61, 131, 88, 229, 45, 119, 122)
(106, 60, 132, 87, 191, 48, 119, 132)
(97, 57, 128, 86, 155, 49, 123, 140)
(96, 55, 127, 82, 122, 51, 129, 147)
(94, 51, 128, 81, 96, 50, 126, 150)
(87, 49, 131, 82, 80, 54, 130, 150)
(87, 51, 128, 75, 75, 51, 122, 143)
(94, 52, 133, 81, 76, 52, 122, 140)
(100, 50, 128, 87, 81, 48, 119, 132)
(95, 51, 123, 97, 90, 51, 118, 125)
(95, 51, 117, 106, 98, 46, 112, 121)
(95, 52, 115, 116, 101, 49, 110, 120)
(91, 50, 106, 136, 100, 44, 104, 124)
(86, 56, 106, 151, 105, 42, 97, 131)
(89, 58, 101, 162, 105, 39, 94, 140)
(89, 57, 100, 172, 112, 40, 84, 138)
(86, 55, 95, 173, 123, 37, 85, 138)
(75, 52, 94, 156, 127, 41, 75, 129)
(70, 48, 88, 135, 123, 41, 75, 116)
(68, 47, 84, 113, 118, 39, 76, 103)
(63, 48, 77, 83, 103, 38, 82, 109)
(62, 44, 77, 68, 88, 38, 89, 112)
(61, 43, 79, 62, 81, 35, 90, 111)
(56, 45, 82, 65, 77, 34, 93, 112)
(54, 42, 93, 63, 76, 37, 96, 121)
(61, 39, 92, 62, 75, 39, 95, 120)
(66, 39, 93, 62, 75, 37, 90, 115)
(67, 42, 96, 64, 74, 36, 94, 122)
(71, 40, 96, 64, 74, 39, 90, 132)
(68, 41, 96, 66, 71, 36, 90, 126)
(62, 40, 100, 65, 75, 35, 88, 121)
(58, 44, 105, 66, 73, 34, 88, 119)
(56, 43, 106, 66, 75, 35, 87, 112)
(55, 41, 114, 63, 74, 32, 87, 98)
(56, 42, 112, 70, 81, 33, 89, 99)
(62, 42, 114, 73, 84, 31, 96, 96)
(79, 40, 117, 79, 87, 33, 105, 106)
(83, 38, 115, 78, 88, 32, 103, 103)
(80, 40, 107, 80, 88, 38, 101, 99)
(77, 38, 103, 75, 82, 35, 97, 91)
(72, 37, 97, 72, 76, 39, 94, 86)
(54, 39, 85, 63, 73, 36, 79, 70)
(48, 40, 81, 64, 71, 38, 88, 72)
(49, 40, 77, 62, 72, 34, 93, 75)
(50, 40, 73, 61, 72, 36, 96, 80)
(49, 40, 79, 60, 72, 34, 100, 86)
(50, 41, 80, 61, 69, 39, 103, 88)
(49, 40, 88, 67, 68, 37, 105, 92)
(48, 44, 90, 67, 71, 37, 102, 94)
(54, 46, 98, 65, 75, 37, 99, 93)
(61, 48, 97, 69, 76, 41, 92, 96)
(61, 46, 103, 72, 78, 37, 96, 99)
(63, 46, 104, 69, 76, 38, 96, 97)
(63, 40, 104, 69, 75, 39, 101, 99)
(58, 37, 106, 72, 74, 39, 101, 100)
(51, 41, 110, 75, 70, 34, 102, 101)
(52, 44, 106, 71, 72, 36, 100, 97)
(50, 42, 102, 67, 74, 39, 96, 98)
(49, 43, 101, 70, 70, 39, 89, 93)
(50, 42, 96, 69, 67, 37, 90, 91)
(48, 39, 86, 65, 72, 38, 89, 80)
(46, 33, 85, 69, 70, 39, 93, 77)
(48, 36, 83, 67, 72, 35, 89, 73)
(49, 36, 81, 67, 72, 34, 92, 79)
(51, 36, 83, 62, 75, 36, 91, 77)
(55, 36, 89, 64, 74, 35, 95, 83)
(57, 38, 90, 62, 74, 34, 92, 89)
(54, 40, 92, 67, 77, 35, 95, 93)
(55, 38, 93, 66, 80, 36, 94, 92)
(53, 40, 96, 69, 78, 34, 96, 93)
(51, 41, 102, 69, 78, 36, 97, 98)
(52, 41, 103, 74, 76, 35, 98, 100)
(53, 40, 103, 72, 72, 35, 100, 102)
(55, 41, 108, 72, 73, 37, 103, 106)
(56, 40, 107, 72, 76, 42, 108, 105)
(56, 39, 104, 71, 74, 43, 106, 102)
(54, 36, 110, 69, 78, 42, 107, 102)
(51, 33, 113, 70, 79, 43, 101, 98)
(47, 31, 111, 70, 76, 41, 100, 96)
(45, 33, 106, 70, 76, 36, 92, 98)
(43, 31, 106, 68, 74, 33, 89, 92)
(40, 31, 95, 63, 68, 33, 81, 83)
(41, 31, 87, 61, 65, 33, 80, 78)
(43, 33, 78, 60, 68, 34, 72, 69)
(67, 44, 107, 95, 99, 37, 115, 106)
(79, 49, 125, 115, 122, 36, 139, 133)
(84, 59, 144, 130, 138, 35, 156, 147)
(95, 88, 146, 136, 155, 38, 166, 164)
(99, 93, 154, 141, 160, 42, 175, 170)
(86, 89, 142, 124, 144, 39, 154, 151)
(75, 91, 129, 114, 127, 39, 134, 134)
(72, 92, 116, 103, 113, 39, 119, 123)
(59, 74, 122, 100, 87, 37, 110, 103)
(58, 93, 116, 96, 78, 35, 99, 98)
(61, 95, 110, 94, 74, 41, 91, 95)
(62, 93, 102, 81, 73, 40, 88, 91)
(61, 90, 101, 77, 69, 41, 84, 88)
(61, 87, 96, 74, 68, 39, 84, 87)
(58, 67, 89, 66, 65, 37, 84, 84)
(54, 68, 86, 62, 65, 31, 92, 92)
(52, 67, 91, 64, 62, 34, 88, 90)
(51, 61, 86, 60, 60, 35, 90, 90)
(49, 61, 85, 54, 59, 36, 86, 97)
(49, 54, 93, 57, 54, 37, 86, 98)
(49, 53, 96, 53, 52, 38, 81, 89)
(49, 56, 92, 54, 54, 37, 88, 92)
(53, 64, 102, 58, 53, 39, 85, 106)
(54, 63, 103, 63, 54, 40, 94, 100)
(54, 61, 101, 66, 57, 37, 98, 105)
(52, 66, 107, 69, 60, 38, 101, 107)
(56, 64, 107, 71, 57, 39, 101, 106)
(52, 58, 98, 73, 57, 35, 108, 91)
(54, 57, 93, 69, 61, 34, 106, 94)
(52, 56, 95, 67, 61, 35, 106, 93)
(58, 46, 81, 65, 56, 32, 101, 93)
(53, 42, 81, 61, 59, 31, 99, 98)
(55, 39, 86, 53, 59, 34, 100, 98)
(54, 36, 87, 57, 54, 32, 98, 105)
(53, 36, 87, 55, 55, 31, 96, 102)
(51, 37, 92, 54, 58, 34, 100, 100)
(54, 41, 94, 56, 55, 34, 95, 98)
(55, 41, 91, 55, 57, 35, 86, 103)
(53, 39, 95, 54, 60, 34, 85, 95)
(52, 41, 96, 61, 61, 38, 88, 98)
(50, 43, 100, 64, 60, 39, 88, 100)
(50, 40, 101, 64, 61, 37, 92, 104)
(48, 42, 101, 67, 61, 35, 94, 101)
(52, 42, 97, 64, 58, 38, 96, 99)
(51, 38, 94, 58, 53, 38, 96, 92)
(53, 34, 89, 56, 52, 38, 93, 88)
(51, 33, 85, 56, 53, 42, 93, 80)
(52, 32, 87, 54, 51, 39, 91, 88)
(51, 32, 84, 55, 51, 37, 88, 89)
(53, 33, 80, 57, 52, 34, 86, 87)
(51, 36, 80, 55, 51, 32, 87, 90)
(52, 35, 78, 54, 48, 27, 86, 88)
(52, 37, 76, 55, 54, 29, 86, 87)
(51, 37, 83, 54, 58, 29, 92, 88)
(53, 36, 86, 56, 61, 31, 89, 97)
(54, 35, 86, 57, 61, 30, 88, 100)
(57, 35, 86, 61, 62, 30, 94, 99)
(55, 35, 83, 64, 60, 33, 93, 93)
(58, 36, 81, 64, 59, 37, 88, 93)
(56, 37, 85, 62, 55, 34, 87, 90)
(55, 34, 87, 62, 52, 37, 88, 89)
(54, 34, 91, 60, 53, 39, 83, 91)
(55, 34, 95, 55, 52, 39, 82, 93)
(51, 31, 93, 59, 47, 38, 84, 97)
(51, 31, 94, 59, 48, 39, 84, 94)
(52, 35, 93, 61, 52, 40, 87, 91)
(49, 35, 93, 63, 54, 39, 90, 92)
(49, 34, 92, 62, 51, 38, 89, 93)
(49, 36, 92, 57, 51, 34, 90, 90)
(44, 36, 88, 62, 52, 35, 94, 86)
(46, 36, 88, 61, 47, 32, 93, 87)
(48, 38, 84, 60, 44, 31, 91, 84)
(47, 40, 83, 62, 45, 35, 96, 79)
(48, 39, 91, 65, 49, 35, 95, 79)
(51, 44, 90, 64, 50, 33, 95, 81)
(51, 43, 91, 65, 56, 34, 90, 81)
(51, 42, 92, 60, 56, 36, 96, 83)
(59, 38, 92, 60, 57, 34, 95, 84)
(60, 40, 89, 61, 55, 35, 95, 84)
(60, 36, 88, 56, 58, 37, 93, 87)
(62, 39, 87, 57, 54, 38, 95, 90)
(59, 41, 89, 57, 53, 37, 88, 93)
(53, 42, 94, 56, 50, 34, 87, 93)
(49, 41, 96, 53, 49, 36, 89, 93)
(50, 42, 100, 56, 49, 36, 88, 93)
(48, 37, 105, 59, 50, 36, 88, 94)
(51, 40, 106, 61, 50, 35, 86, 105)
(50, 40, 100, 62, 53, 36, 83, 105)
(57, 50, 93, 64, 63, 38, 80, 106)
(55, 56, 93, 66, 65, 35, 88, 106)
(57, 60, 86, 62, 66, 34, 88, 104)
(60, 59, 82, 62, 66, 35, 89, 96)
(68, 70, 92, 68, 74, 37, 92, 99)
(78, 83, 115, 75, 74, 34, 96, 104)
(102, 87, 124, 80, 73, 39, 96, 119)
(120, 110, 126, 100, 92, 45, 104, 139)
(137, 128, 150, 132, 117, 49, 113, 157)
(143, 147, 161, 147, 137, 52, 134, 181)
(150, 276, 159, 166, 290, 66, 148, 182)
(187, 313, 161, 181, 475, 76, 153, 194)
(321, 315, 162, 178, 572, 77, 155, 185)
(435, 371, 150, 256, 1050, 394, 159, 176)
(454, 579, 132, 327, 1140, 558, 143, 164)
(549, 658, 121, 333, 1119, 571, 135, 185)
(615, 726, 105, 329, 1058, 583, 130, 179)
(609, 767, 109, 328, 1009, 589, 124, 171)
(540, 747, 113, 262, 490, 451, 111, 169)
(523, 599, 119, 155, 192, 221, 115, 154)
(423, 456, 123, 126, 147, 182, 107, 132)
(307, 326, 131, 121, 105, 143, 103, 114)
(173, 213, 125, 117, 97, 125, 109, 118)
(153, 182, 112, 114, 79, 103, 107, 117)
(157, 181, 113, 124, 92, 93, 104, 139)
(151, 172, 116, 133, 95, 92, 117, 136)
(121, 123, 114, 136, 95, 80, 124, 140)
(122, 101, 121, 140, 103, 69, 121, 157)
(107, 99, 116, 136, 111, 62, 128, 157)
(96, 88, 113, 130, 105, 64, 127, 146)
(95, 85, 103, 114, 94, 61, 111, 141)
(120, 85, 101, 103, 94, 62, 127, 137)
(116, 82, 97, 98, 86, 58, 131, 119)
(110, 83, 96, 98, 79, 58, 128, 111)
(104, 71, 94, 85, 62, 55, 127, 99)
(99, 72, 90, 81, 62, 53, 131, 106)
(66, 69, 88, 76, 56, 51, 107, 100)
(64, 70, 85, 69, 54, 49, 103, 97)
(70, 71, 90, 75, 58, 46, 100, 101)
(69, 73, 84, 69, 58, 42, 100, 102)
(68, 67, 83, 71, 56, 44, 97, 93)
(64, 64, 81, 72, 54, 47, 96, 90)
(59, 59, 79, 68, 53, 45, 91, 93)
(55, 54, 77, 75, 42, 42, 87, 86)
(58, 49, 79, 87, 48, 40, 85, 84)
(53, 54, 80, 86, 48, 37, 84, 82)
(51, 60, 86, 136, 63, 31, 84, 82)
(55, 60, 86, 144, 68, 31, 87, 73)
(51, 58, 86, 139, 70, 35, 90, 71)
(53, 60, 87, 147, 76, 37, 93, 74)
(53, 59, 86, 179, 82, 41, 94, 81)
(56, 52, 80, 158, 83, 42, 99, 82)
(55, 53, 81, 152, 80, 42, 99, 86)
(58, 51, 83, 149, 80, 41, 103, 92)
(53, 47, 80, 136, 69, 39, 102, 96)
(58, 43, 82, 87, 62, 35, 102, 91)
(57, 47, 81, 58, 46, 34, 99, 89)
(54, 47, 78, 56, 41, 37, 100, 86)
(55, 50, 77, 59, 40, 37, 93, 80)
(67, 51, 80, 57, 39, 36, 95, 74)
(69, 51, 83, 56, 36, 38, 95, 71)
(69, 50, 82, 57, 38, 39, 94, 74)
(72, 53, 87, 57, 41, 41, 89, 74)
(73, 53, 86, 67, 44, 42, 92, 76)
(66, 54, 88, 87, 53, 43, 94, 81)
(60, 59, 84, 92, 55, 42, 97, 84)
(61, 60, 83, 93, 53, 45, 92, 85)
(64, 60, 85, 109, 62, 40, 94, 89)
(61, 57, 89, 149, 85, 42, 91, 87)
(56, 62, 86, 158, 101, 41, 86, 88)
(57, 59, 82, 179, 107, 41, 85, 87)
(59, 57, 97, 195, 114, 40, 93, 89)
(58, 56, 96, 203, 114, 41, 95, 88)
(61, 63, 91, 271, 105, 39, 99, 90)
(64, 95, 95, 299, 100, 41, 104, 86)
(61, 114, 105, 316, 98, 41, 102, 84)
(58, 116, 96, 323, 96, 37, 99, 78)
(56, 117, 101, 375, 110, 39, 102, 80)
(73, 115, 110, 341, 124, 37, 105, 80)
(92, 86, 105, 316, 123, 37, 97, 86)
(111, 62, 100, 300, 120, 37, 95, 91)
(124, 59, 96, 300, 120, 38, 95, 95)
(158, 59, 115, 346, 158, 38, 91, 95)
(212, 114, 128, 378, 155, 39, 91, 99)
(239, 133, 132, 378, 150, 37, 94, 96)
(249, 138, 128, 370, 151, 45, 93, 94)
(279, 138, 138, 381, 162, 49, 93, 109)
(279, 181, 174, 396, 143, 60, 93, 125)
(271, 238, 168, 350, 130, 62, 91, 124)
(337, 377, 169, 348, 128, 63, 98, 123)
(383, 412, 176, 362, 137, 57, 104, 127)
(385, 437, 181, 346, 131, 54, 101, 121)
(393, 463, 139, 281, 110, 38, 106, 107)
(385, 524, 136, 271, 113, 36, 102, 114)
(332, 473, 138, 273, 121, 36, 130, 118)
(304, 461, 134, 340, 133, 39, 144, 139)
(327, 490, 132, 368, 128, 44, 141, 140)
(371, 797, 121, 308, 117, 47, 137, 162)
(366, 789, 120, 337, 122, 48, 135, 167)
(352, 775, 133, 381, 120, 55, 101, 164)
(361, 781, 136, 321, 96, 55, 81, 145)
(351, 768, 122, 311, 94, 53, 88, 156)
(288, 400, 117, 376, 90, 53, 83, 136)
(286, 284, 112, 354, 83, 55, 81, 136)
(280, 257, 93, 311, 74, 45, 82, 150)
(230, 201, 84, 298, 71, 48, 76, 149)
(172, 106, 99, 273, 69, 50, 71, 137)
(202, 100, 102, 209, 74, 49, 83, 127)
(201, 100, 106, 246, 81, 45, 87, 114)
(200, 92, 105, 277, 81, 46, 93, 94)
(200, 82, 101, 280, 80, 42, 96, 90)
(208, 83, 83, 270, 73, 46, 100, 83)
(177, 81, 81, 251, 66, 48, 93, 82)
(166, 77, 74, 235, 53, 49, 96, 76)
(157, 73, 73, 196, 58, 50, 91, 74)
(147, 73, 75, 189, 57, 50, 87, 71)
(124, 71, 78, 188, 61, 45, 82, 64)
(105, 66, 84, 194, 64, 55, 82, 70)
(109, 71, 81, 169, 63, 70, 74, 91)
(128, 77, 91, 188, 72, 333, 80, 119)
(141, 76, 91, 189, 71, 403, 84, 148)
(181, 90, 95, 188, 69, 418, 82, 170)
(189, 95, 97, 204, 67, 503, 94, 202)
(191, 90, 98, 194, 67, 516, 99, 302)
(191, 88, 90, 226, 61, 406, 88, 339)
(194, 568, 113, 256, 65, 349, 90, 344)
(171, 651, 110, 266, 69, 336, 98, 342)
(184, 660, 103, 262, 70, 187, 97, 355)
(195, 668, 104, 286, 80, 143, 91, 324)
(200, 676, 116, 290, 80, 128, 95, 343)
(224, 386, 102, 283, 79, 102, 93, 341)
(248, 214, 111, 308, 81, 140, 92, 345)
(245, 183, 116, 290, 78, 148, 80, 334)
(238, 154, 124, 270, 68, 150, 89, 287)
(240, 111, 122, 233, 72, 151, 90, 238)
(217, 83, 122, 209, 75, 169, 89, 237)
(223, 82, 114, 156, 71, 168, 102, 312)
(235, 86, 112, 166, 72, 159, 249, 359)
(231, 79, 113, 159, 75, 155, 251, 379)
(245, 120, 112, 160, 62, 181, 282, 470)
(657, 147, 116, 161, 71, 289, 447, 554)
(720, 151, 116, 156, 71, 336, 604, 546)
(755, 155, 114, 153, 75, 368, 624, 614)
(800, 156, 106, 158, 74, 373, 703, 621)
(810, 125, 94, 196, 85, 365, 731, 565)
(606, 93, 103, 226, 85, 409, 1079, 708)
(676, 93, 160, 310, 116, 464, 1303, 1121)
(688, 214, 181, 404, 121, 567, 1398, 1146)
(681, 463, 191, 421, 121, 589, 1482, 1214)
(723, 488, 197, 405, 117, 637, 1673, 1275)
(693, 490, 197, 416, 114, 598, 1698, 1310)
(538, 495, 158, 386, 90, 534, 1676, 995)
(515, 457, 133, 287, 91, 404, 1776, 1023)
(469, 213, 125, 284, 92, 373, 1702, 941)
(360, 149, 115, 332, 91, 289, 1496, 843)
(298, 136, 96, 306, 89, 203, 1184, 596)
(295, 112, 86, 277, 81, 157, 881, 539)
(176, 99, 83, 276, 74, 134, 318, 250)
(132, 66, 79, 278, 69, 111, 87, 191)
(138, 57, 77, 212, 70, 76, 72, 177)
(137, 54, 75, 201, 67, 60, 64, 174)
(136, 48, 83, 209, 65, 53, 53, 168)
(149, 45, 82, 222, 58, 54, 55, 151)
(166, 45, 78, 185, 57, 59, 59, 166)
(174, 43, 73, 171, 47, 56, 60, 166)
(186, 43, 74, 169, 52, 58, 57, 166)
(191, 44, 76, 147, 54, 65, 54, 160)
(230, 45, 77, 113, 58, 68, 57, 169)
(218, 45, 71, 116, 58, 64, 55, 148)
(213, 47, 74, 105, 63, 66, 55, 149)
(210, 56, 76, 92, 59, 66, 53, 144)
(213, 81, 65, 86, 54, 64, 57, 138)
(156, 85, 62, 80, 50, 63, 53, 114)
(154, 116, 67, 57, 48, 65, 51, 110)
(181, 119, 66, 51, 46, 63, 51, 102)
(184, 115, 64, 50, 50, 61, 54, 96)
(195, 100, 69, 54, 51, 55, 55, 100)
(210, 100, 77, 59, 56, 54, 59, 124)
(230, 63, 74, 57, 58, 56, 60, 133)
(221, 58, 80, 71, 59, 59, 62, 154)
(233, 60, 83, 70, 53, 58, 62, 152)
(216, 60, 82, 68, 52, 61, 59, 143)
(224, 55, 76, 65, 50, 58, 54, 127)
(202, 56, 76, 63, 45, 54, 53, 126)
(214, 56, 72, 50, 42, 52, 53, 124)
(190, 53, 71, 51, 40, 52, 52, 113)
(192, 52, 66, 56, 39, 49, 49, 112)
(170, 50, 66, 53, 38, 52, 50, 106)
(209, 49, 72, 60, 44, 55, 52, 110)
(189, 52, 72, 60, 40, 52, 48, 84)
(203, 53, 70, 60, 43, 51, 48, 86)
(228, 53, 75, 58, 50, 52, 53, 107)
(244, 56, 76, 59, 51, 50, 56, 120)
(227, 55, 72, 58, 49, 54, 51, 110)
(215, 54, 69, 67, 53, 55, 54, 108)
(200, 59, 70, 70, 54, 58, 53, 108)
(174, 61, 83, 78, 58, 61, 50, 95)
(153, 64, 85, 86, 62, 61, 50, 83)
(134, 65, 92, 85, 58, 54, 52, 92)
(161, 67, 100, 85, 59, 58, 51, 98)
(163, 62, 96, 82, 69, 54, 50, 114)
(206, 64, 84, 74, 63, 54, 48, 115)
(204, 60, 84, 65, 58, 54, 47, 121)
(215, 59, 76, 65, 65, 61, 46, 122)
(230, 58, 66, 56, 72, 56, 49, 144)
(243, 58, 67, 51, 66, 60, 50, 140)
(231, 55, 72, 62, 69, 58, 53, 155)
(230, 57, 71, 65, 73, 64, 54, 158)
(236, 56, 72, 65, 79, 57, 57, 153)
(228, 61, 75, 68, 87, 57, 53, 151)
(224, 63, 80, 72, 92, 57, 53, 153)
(232, 67, 77, 69, 101, 64, 61, 176)
(243, 73, 76, 85, 101, 56, 62, 184)
(244, 78, 76, 104, 98, 60, 62, 203)
(301, 76, 85, 122, 105, 66, 70, 219)
(301, 79, 90, 144, 119, 65, 75, 218)
(305, 75, 93, 149, 148, 58, 68, 205)
(313, 71, 101, 147, 183, 57, 69, 219)
(313, 64, 103, 145, 219, 66, 71, 207)
(275, 65, 102, 140, 237, 60, 66, 184)
(273, 69, 106, 140, 241, 61, 62, 190)
(242, 72, 105, 154, 235, 69, 64, 191)
(248, 87, 97, 159, 215, 70, 64, 160)
(258, 92, 96, 171, 186, 61, 62, 172)
(254, 95, 91, 188, 158, 63, 64, 169)
(274, 89, 76, 214, 144, 62, 65, 191)
(278, 87, 77, 210, 116, 52, 68, 186)
(252, 72, 76, 208, 105, 52, 67, 201)
(268, 71, 75, 196, 90, 50, 64, 198)
(279, 68, 74, 179, 79, 47, 60, 197)
(259, 65, 77, 128, 68, 49, 57, 185)
(278, 67, 73, 107, 72, 49, 49, 177)
(299, 64, 78, 94, 70, 49, 47, 170)
(268, 61, 77, 80, 67, 46, 50, 155)
(253, 58, 78, 56, 66, 47, 51, 165)
(265, 58, 83, 68, 77, 43, 50, 162)
(249, 54, 87, 138, 76, 44, 48, 174)
(227, 57, 84, 146, 82, 50, 48, 189)
(218, 59, 86, 148, 88, 50, 46, 204)
(182, 56, 82, 150, 87, 49, 49, 198)
(152, 58, 79, 146, 75, 51, 53, 185)
(130, 58, 75, 82, 76, 52, 55, 180)
(144, 57, 74, 67, 73, 47, 53, 154)
(168, 50, 73, 65, 68, 47, 56, 138)
(180, 50, 76, 58, 70, 50, 49, 135)
(184, 53, 73, 48, 74, 51, 46, 129)
(203, 54, 81, 43, 72, 51, 44, 108)
(199, 55, 83, 45, 73, 50, 45, 130)
(221, 61, 84, 42, 76, 56, 44, 138)
(226, 68, 84, 47, 80, 54, 48, 162)
(224, 69, 87, 46, 79, 53, 49, 182)
(208, 78, 88, 50, 79, 55, 49, 210)
(217, 76, 85, 46, 78, 63, 52, 214)
(175, 72, 92, 44, 75, 60, 51, 214)
(159, 66, 93, 41, 76, 61, 49, 193)
(160, 61, 95, 41, 76, 60, 54, 175)
(171, 48, 91, 38, 74, 57, 56, 145)
(147, 45, 93, 40, 76, 46, 57, 123)
(176, 47, 85, 44, 77, 41, 62, 111)
(176, 49, 85, 49, 73, 42, 63, 115)
(170, 51, 81, 56, 71, 44, 62, 112)
(153, 51, 78, 61, 73, 46, 62, 105)
(162, 56, 78, 61, 68, 49, 61, 115)
(129, 54, 78, 60, 67, 51, 57, 114)
(124, 51, 76, 56, 66, 48, 56, 108)
(120, 49, 74, 49, 61, 45, 52, 109)
(126, 50, 75, 43, 60, 44, 53, 110)
(115, 53, 72, 48, 57, 43, 51, 105)
(111, 57, 71, 51, 50, 41, 53, 103)
(104, 59, 74, 53, 46, 41, 53, 103)
(106, 60, 76, 51, 50, 44, 55, 106)
(88, 58, 80, 55, 47, 46, 53, 102)
(106, 54, 85, 52, 49, 44, 53, 100)
(116, 51, 84, 48, 49, 47, 50, 106)
(120, 48, 83, 45, 50, 48, 50, 111)
(133, 49, 77, 49, 56, 46, 47, 113)
(133, 53, 76, 47, 58, 46, 49, 119)
(127, 53, 73, 44, 59, 49, 50, 144)
(117, 52, 79, 49, 60, 48, 47, 139)
(116, 55, 84, 53, 61, 46, 50, 133)
(102, 58, 90, 51, 54, 46, 49, 128)
(112, 59, 87, 47, 54, 45, 49, 130)
(111, 56, 90, 51, 52, 44, 49, 91)
(123, 61, 90, 51, 53, 44, 54, 94)
(126, 62, 87, 48, 51, 46, 51, 101)
(126, 59, 91, 46, 55, 46, 52, 107)
(130, 62, 91, 53, 54, 47, 49, 111)
(127, 71, 90, 55, 58, 48, 54, 116)
(117, 70, 90, 51, 60, 45, 55, 118)
(125, 67, 93, 54, 58, 44, 60, 122)
(145, 66, 99, 57, 56, 46, 66, 119)
(133, 61, 105, 53, 53, 45, 70, 114)
(154, 55, 110, 52, 49, 47, 72, 115)
arm Arm.RIGHT xdir XDirection.X_TOWARD_ELBOW
pose Pose.REST
(159, 55, 113, 53, 43, 47, 70, 113)
(153, 59, 114, 56, 44, 47, 66, 108)
(137, 58, 108, 56, 41, 49, 62, 118)
(163, 59, 100, 55, 47, 49, 58, 127)
(153, 57, 99, 51, 48, 45, 50, 133)
(166, 54, 95, 53, 49, 46, 51, 131)
(169, 56, 88, 47, 49, 44, 48, 134)
(166, 58, 83, 41, 48, 40, 54, 128)
(160, 58, 84, 44, 49, 38, 56, 118)
(147, 55, 81, 43, 49, 38, 57, 106)
(133, 61, 72, 42, 53, 38, 55, 108)
(143, 63, 74, 44, 59, 44, 57, 113)
(154, 70, 72, 51, 65, 46, 53, 112)
(144, 74, 76, 48, 61, 45, 60, 113)
(144, 75, 77, 49, 58, 44, 62, 111)
(163, 71, 92, 50, 55, 42, 66, 111)
(166, 68, 98, 50, 50, 37, 74, 106)
(156, 59, 104, 46, 42, 40, 76, 100)
(153, 52, 107, 46, 42, 45, 73, 102)
(157, 48, 103, 47, 47, 48, 70, 103)
(135, 46, 100, 53, 43, 49, 69, 108)
(123, 40, 101, 52, 47, 51, 59, 104)
(135, 47, 96, 50, 49, 47, 56, 120)
(127, 46, 95, 54, 49, 43, 52, 118)
(117, 46, 93, 52, 46, 39, 53, 115)
(123, 50, 83, 43, 48, 37, 50, 110)
(116, 52, 76, 40, 43, 33, 53, 107)
(116, 48, 76, 41, 43, 32, 52, 102)
(113, 48, 74, 40, 50, 33, 56, 104)
(154, 52, 80, 44, 51, 35, 58, 111)
(148, 56, 88, 55, 59, 34, 63, 121)
(162, 55, 93, 64, 62, 36, 67, 119)
(163, 57, 107, 75, 65, 37, 77, 130)
(168, 65, 107, 87, 63, 37, 91, 123)
(173, 73, 107, 90, 66, 38, 94, 128)
(201, 68, 103, 110, 70, 39, 99, 121)
(203, 77, 106, 113, 76, 37, 100, 134)
(228, 79, 103, 113, 77, 40, 95, 131)
(266, 75, 110, 107, 77, 41, 85, 153)
(261, 67, 115, 108, 86, 40, 86, 160)
(259, 71, 123, 89, 84, 44, 80, 172)
(316, 71, 128, 79, 81, 44, 73, 191)
(322, 69, 121, 72, 79, 43, 77, 190)
(290, 73, 118, 68, 82, 46, 76, 175)
pose Pose.WAVE_IN
(293, 72, 114, 69, 69, 45, 76, 166)
(337, 79, 115, 76, 67, 43, 76, 158)
(285, 77, 110, 102, 67, 47, 79, 140)
(303, 77, 111, 105, 66, 49, 83, 144)
(312, 74, 108, 110, 70, 51, 84, 145)
(299, 80, 112, 107, 70, 52, 83, 147)
(246, 75, 111, 99, 71, 52, 85, 144)
(247, 68, 107, 72, 65, 49, 84, 135)
(213, 65, 123, 69, 69, 45, 76, 119)
(220, 67, 127, 64, 72, 40, 84, 137)
(219, 68, 128, 62, 80, 40, 85, 149)
(211, 68, 128, 71, 86, 40, 93, 158)
(224, 71, 135, 72, 92, 41, 94, 163)
(211, 74, 129, 70, 89, 42, 93, 165)
(208, 73, 127, 73, 82, 40, 85, 155)
(225, 67, 125, 74, 77, 40, 79, 144)
(216, 60, 121, 63, 66, 38, 66, 130)
(207, 60, 115, 65, 63, 40, 70, 121)
(195, 64, 115, 71, 62, 41, 74, 118)
(205, 66, 109, 66, 65, 42, 75, 116)
(194, 68, 104, 66, 61, 39, 75, 116)
(198, 67, 97, 64, 63, 42, 77, 118)
(190, 66, 103, 65, 62, 39, 70, 128)
(225, 71, 97, 62, 62, 37, 76, 132)
(209, 70, 94, 58, 55, 35, 77, 122)
(202, 65, 98, 59, 57, 35, 74, 119)
(196, 67, 103, 60, 54, 35, 71, 120)
(226, 72, 96, 62, 55, 35, 73, 120)
(184, 60, 90, 56, 52, 34, 70, 115)
(174, 55, 99, 59, 50, 33, 66, 118)
(199, 61, 105, 61, 46, 37, 71, 148)
(205, 62, 102, 60, 50, 35, 74, 147)
(178, 54, 98, 51, 45, 35, 73, 140)
(184, 54, 98, 53, 43, 34, 64, 134)
(207, 55, 95, 56, 49, 38, 67, 140)
(191, 57, 79, 51, 49, 37, 65, 101)
(188, 59, 89, 53, 46, 39, 62, 97)
(176, 59, 88, 54, 47, 40, 66, 99)
(188, 61, 88, 56, 47, 41, 64, 119)
(167, 64, 86, 51, 41, 37, 61, 113)
(160, 58, 90, 55, 45, 34, 55, 121)
(202, 53, 78, 53, 51, 33, 63, 134)
(201, 57, 80, 54, 54, 33, 61, 144)
(192, 56, 84, 54, 55, 35, 66, 134)
(244, 59, 94, 61, 61, 43, 71, 140)
(247, 58, 93, 62, 58, 44, 77, 147)
(222, 61, 109, 70, 63, 45, 78, 154)
(233, 66, 110, 74, 63, 42, 81, 141)
(255, 73, 109, 73, 67, 47, 85, 184)
(217, 74, 117, 84, 68, 42, 91, 184)
(208, 78, 117, 82, 68, 44, 89, 182)
(213, 79, 102, 76, 60, 40, 92, 170)
(202, 74, 104, 72, 58, 43, 90, 171)
(175, 66, 101, 72, 54, 36, 83, 120)
(157, 58, 78, 51, 48, 36, 73, 109)
(174, 54, 80, 47, 47, 33, 70, 103)
(161, 53, 81, 40, 49, 33, 54, 96)
(163, 55, 82, 43, 47, 29, 57, 91)
(157, 61, 102, 47, 51, 31, 55, 96)
(169, 60, 106, 51, 52, 29, 57, 98)
(159, 61, 103, 59, 60, 35, 65, 95)
(161, 57, 104, 67, 60, 36, 69, 97)
(172, 55, 102, 67, 61, 39, 66, 120)
(173, 54, 94, 64, 58, 41, 68, 126)
(160, 55, 92, 63, 59, 43, 70, 129)
(162, 57, 99, 57, 53, 41, 66, 127)
(160, 58, 107, 51, 48, 41, 64, 127)
(146, 57, 106, 50, 48, 42, 65, 112)
(158, 57, 94, 50, 50, 38, 69, 97)
(164, 57, 95, 55, 48, 41, 65, 98)
(153, 58, 93, 59, 46, 40, 61, 98)
(155, 62, 88, 61, 50, 45, 71, 103)
(159, 63, 91, 65, 52, 43, 79, 98)
(247, 70, 108, 67, 52, 45, 87, 162)
(253, 78, 109, 70, 56, 42, 100, 173)
(262, 75, 109, 69, 59, 43, 105, 173)
(327, 83, 129, 83, 64, 42, 103, 170)
(332, 84, 125, 82, 64, 42, 97, 176)
(274, 77, 118, 80, 66, 46, 87, 140)
(272, 70, 116, 78, 66, 48, 71, 129)
(267, 79, 113, 77, 66, 49, 79, 136)
(233, 67, 85, 63, 61, 45, 84, 147)
(226, 66, 89, 60, 62, 45, 83, 144)
(212, 65, 93, 59, 58, 43, 83, 137)
(218, 65, 95, 54, 53, 44, 87, 138)
(215, 53, 96, 52, 49, 44, 77, 132)
(154, 62, 95, 50, 47, 45, 68, 117)
(145, 59, 91, 51, 47, 43, 67, 122)
(170, 67, 87, 56, 48, 41, 70, 108)
(146, 66, 83, 55, 48, 34, 69, 99)
(147, 70, 86, 54, 47, 32, 65, 104)
(167, 63, 86, 52, 47, 35, 61, 107)
(167, 67, 90, 50, 47, 40, 62, 95)
(154, 61, 92, 47, 44, 42, 55, 105)
(189, 68, 91, 48, 46, 43, 58, 111)
(222, 65, 94, 59, 52, 42, 69, 122)
(207, 64, 96, 59, 51, 40, 71, 121)
(221, 62, 93, 58, 47, 37, 74, 126)
(222, 64, 91, 69, 52, 37, 77, 133)
(209, 64, 95, 70, 51, 38, 71, 127)
(187, 62, 97, 62, 48, 37, 60, 111)
(186, 62, 103, 66, 47, 36, 58, 122)
(183, 70, 102, 66, 49, 36, 62, 121)
(171, 64, 100, 50, 41, 30, 63, 107)
(152, 60, 104, 49, 40, 31, 62, 114)
(169, 61, 101, 51, 41, 35, 64, 117)
(168, 61, 98, 49, 44, 38, 61, 104)
(154, 53, 95, 50, 44, 35, 57, 96)
(226, 55, 93, 52, 54, 39, 63, 116)
(234, 53, 92, 52, 56, 39, 64, 112)
(212, 54, 82, 46, 53, 36, 62, 114)
(225, 55, 77, 46, 52, 32, 68, 113)
(232, 59, 85, 45, 49, 34, 71, 122)
(197, 60, 87, 51, 43, 34, 67, 112)
(194, 59, 86, 55, 43, 34, 77, 119)
(193, 57, 104, 65, 44, 33, 77, 114)
(172, 58, 105, 65, 44, 35, 78, 119)
(184, 54, 100, 66, 50, 33, 73, 117)
(176, 54, 97, 62, 47, 31, 71, 110)
(185, 55, 96, 57, 46, 34, 58, 119)
(251, 59, 78, 51, 47, 34, 62, 127)
(251, 58, 81, 50, 47, 36, 57, 123)
(239, 57, 86, 52, 43, 36, 56, 121)
(230, 53, 83, 54, 50, 40, 56, 125)
(250, 53, 79, 53, 49, 38, 60, 107)
(191, 50, 80, 55, 50, 41, 57, 96)
(200, 48, 77, 56, 49, 39, 55, 101)
(191, 43, 73, 53, 51, 40, 54, 98)
(200, 50, 71, 52, 46, 36, 55, 87)
(164, 46, 65, 51, 46, 36, 52, 99)
(166, 46, 68, 46, 45, 35, 49, 102)
(175, 58, 73, 46, 42, 32, 61, 109)
(184, 62, 73, 47, 43, 34, 64, 108)
(182, 60, 82, 48, 44, 33, 65, 111)
(183, 64, 95, 52, 41, 32, 67, 103)
(177, 62, 93, 53, 44, 29, 69, 100)
(174, 52, 85, 54, 48, 31, 63, 84)
(198, 53, 87, 56, 46, 32, 61, 94)
(180, 51, 77, 52, 44, 33, 62, 86)
(177, 47, 71, 50, 47, 37, 60, 92)
(183, 51, 72, 49, 48, 39, 60, 108)
(167, 53, 72, 45, 45, 38, 57, 111)
(129, 52, 72, 40, 45, 42, 58, 98)
(159, 56, 79, 42, 48, 42, 53, 107)
(153, 55, 76, 42, 47, 38, 53, 108)
(149, 55, 74, 45, 47, 40, 54, 102)
(153, 54, 84, 53, 46, 42, 54, 110)
(147, 51, 79, 53, 45, 36, 57, 117)
(135, 47, 79, 53, 41, 37, 57, 116)
(149, 49, 88, 55, 38, 39, 54, 121)
(160, 46, 91, 55, 37, 37, 57, 117)
(166, 47, 85, 47, 39, 36, 60, 105)
(176, 49, 87, 47, 39, 37, 59, 106)
(166, 48, 82, 47, 44, 35, 62, 103)
(155, 47, 70, 42, 47, 34, 64, 89)
(147, 53, 66, 42, 44, 34, 63, 81)
(138, 50, 66, 44, 44, 33, 59, 87)
(154, 50, 71, 47, 48, 33, 60, 100)
(170, 54, 71, 47, 46, 32, 55, 108)
(172, 52, 72, 47, 45, 33, 53, 111)
(174, 48, 83, 45, 46, 35, 54, 111)
(173, 55, 90, 49, 47, 36, 56, 112)
(175, 55, 87, 46, 45, 39, 55, 100)
(158, 51, 88, 48, 47, 41, 62, 97)
(154, 53, 89, 48, 46, 44, 64, 102)
(162, 50, 81, 49, 52, 40, 60, 114)
(175, 45, 70, 44, 51, 40, 60, 111)
(152, 47, 75, 45, 52, 38, 56, 110)
(164, 49, 77, 47, 54, 41, 50, 109)
(166, 50, 75, 46, 53, 38, 49, 104)
(163, 50, 77, 45, 46, 38, 49, 94)
(153, 50, 78, 44, 46, 36, 50, 104)
(165, 48, 72, 42, 45, 36, 54, 97)
(159, 46, 77, 43, 37, 34, 57, 88)
(168, 46, 74, 45, 40, 35, 56, 92)
(170, 44, 68, 43, 44, 36, 58, 111)
(165, 46, 74, 48, 43, 37, 63, 105)
(159, 45, 73, 49, 43, 38, 68, 107)
(155, 45, 67, 47, 44, 39, 64, 113)
(159, 48, 71, 46, 42, 39, 67, 106)
(146, 48, 71, 44, 39, 37, 65, 86)
(161, 47, 76, 44, 38, 36, 56, 88)
(173, 47, 80, 46, 39, 36, 48, 88)
(177, 47, 82, 43, 41, 33, 51, 80)
(176, 47, 79, 43, 42, 30, 47, 86)
(171, 48, 80, 44, 41, 32, 44, 88)
(188, 51, 75, 44, 48, 35, 55, 90)
(185, 51, 70, 43, 47, 37, 55, 93)
(175, 49, 65, 113, 55, 38, 52, 93)
(184, 49, 69, 161, 69, 39, 54, 93)
(187, 46, 73, 178, 73, 40, 54, 97)
(157, 46, 76, 187, 70, 39, 46, 89)
(138, 45, 83, 191, 76, 38, 42, 98)
(166, 47, 93, 175, 72, 40, 42, 103)
(138, 47, 98, 142, 59, 39, 45, 100)
(151, 52, 98, 143, 61, 39, 54, 96)
(151, 49, 94, 153, 71, 38, 56, 96)
(151, 51, 90, 151, 66, 39, 58, 91)
(130, 52, 83, 138, 66, 35, 61, 98)
(134, 49, 80, 178, 96, 38, 61, 101)
(116, 50, 79, 187, 100, 39, 56, 99)
(128, 52, 80, 204, 103, 39, 57, 121)
(123, 49, 87, 236, 121, 43, 60, 117)
(108, 55, 97, 272, 155, 43, 71, 115)
(117, 71, 113, 394, 187, 47, 74, 139)
(133, 76, 122, 456, 218, 49, 77, 156)
(137, 78, 126, 489, 244, 54, 79, 155)
(137, 82, 140, 486, 250, 53, 90, 159)
(146, 94, 137, 502, 254, 58, 80, 165)
(139, 85, 132, 443, 236, 55, 92, 145)
(125, 80, 133, 372, 213, 54, 97, 127)
(134, 77, 135, 326, 189, 52, 104, 112)
(181, 76, 118, 323, 178, 55, 94, 110)
(222, 65, 132, 299, 142, 56, 103, 91)
(247, 64, 131, 261, 128, 56, 96, 107)
(263, 62, 125, 293, 119, 62, 95, 109)
(263, 60, 124, 286, 113, 70, 91, 112)
(240, 63, 121, 273, 115, 65, 91, 115)
(199, 51, 107, 246, 135, 63, 82, 151)
(167, 48, 101, 210, 136, 65, 81, 156)
(147, 49, 102, 154, 144, 59, 72, 173)
(140, 55, 92, 156, 155, 50, 62, 182)
(227, 59, 96, 168, 178, 58, 66, 247)
(232, 66, 104, 151, 169, 59, 74, 280)
(244, 69, 104, 155, 171, 65, 73, 282)
(272, 76, 97, 154, 178, 66, 73, 307)
(281, 70, 107, 140, 169, 68, 76, 339)
(265, 71, 109, 126, 148, 65, 73, 368)
(275, 65, 108, 137, 147, 62, 68, 355)
(308, 66, 113, 128, 134, 57, 67, 414)
(294, 60, 123, 136, 115, 56, 66, 402)
(289, 65, 117, 153, 107, 55, 66, 453)
(292, 59, 109, 160, 95, 53, 62, 421)
(315, 59, 106, 169, 97, 55, 57, 508)
(287, 57, 96, 166, 105, 54, 55, 461)
(283, 61, 87, 162, 103, 53, 56, 487)
(305, 58, 85, 140, 101, 51, 56, 440)
(275, 56, 95, 122, 94, 48, 55, 423)
(279, 67, 90, 107, 101, 54, 63, 300)
(280, 64, 92, 110, 93, 52, 60, 299)
(292, 60, 90, 104, 93, 55, 61, 240)
(264, 57, 90, 102, 89, 56, 58, 202)
(264, 59, 82, 97, 88, 59, 60, 202)
(235, 50, 81, 80, 69, 53, 56, 186)
(224, 49, 76, 69, 68, 56, 56, 182)
(217, 46, 88, 84, 63, 51, 57, 180)
(220, 50, 87, 81, 65, 51, 57, 192)
(216, 48, 85, 82, 66, 49, 59, 197)
(206, 43, 92, 83, 76, 47, 58, 205)
(208, 48, 92, 90, 79, 46, 61, 206)
(206, 53, 89, 86, 88, 50, 60, 207)
(218, 58, 97, 102, 84, 50, 61, 184)
(205, 58, 99, 102, 81, 50, 64, 185)
(216, 62, 92, 101, 70, 49, 62, 184)
(217, 64, 94, 101, 85, 47, 65, 182)
(202, 64, 88, 102, 86, 44, 69, 192)
(212, 58, 85, 86, 87, 44, 67, 197)
(217, 57, 80, 88, 92, 49, 65, 183)
(212, 57, 83, 91, 98, 55, 66, 169)
(215, 51, 88, 91, 95, 57, 64, 196)
(216, 54, 85, 77, 86, 55, 64, 196)
(180, 54, 80, 76, 88, 56, 67, 195)
(242, 60, 95, 81, 90, 54, 68, 197)
(253, 64, 90, 80, 85, 55, 70, 250)
(252, 67, 83, 71, 81, 53, 69, 227)
(251, 60, 82, 70, 79, 54, 64, 213)
(257, 61, 88, 76, 74, 52, 60, 206)
(190, 54, 73, 66, 71, 52, 56, 196)
(203, 46, 74, 61, 72, 48, 50, 129)
(190, 42, 82, 70, 62, 48, 51, 127)
(185, 40, 81, 65, 70, 46, 53, 127)
(193, 39, 77, 56, 78, 46, 52, 116)
(194, 39, 83, 54, 76, 46, 59, 132)
(155, 34, 83, 62, 79, 44, 60, 125)
(169, 34, 76, 56, 76, 44, 62, 123)
(175, 35, 78, 59, 69, 48, 63, 120)
(191, 43, 78, 63, 69, 47, 66, 126)
(188, 44, 75, 67, 76, 47, 63, 117)
(189, 44, 73, 62, 73, 48, 62, 115)
(188, 49, 72, 61, 76, 50, 58, 113)
(180, 50, 75, 64, 75, 48, 57, 113)
(145, 40, 75, 64, 71, 49, 57, 100)
(142, 41, 76, 62, 64, 47, 55, 85)
(128, 44, 76, 64, 62, 45, 56, 77)
(121, 46, 83, 71, 73, 44, 57, 81)
(131, 49, 78, 66, 72, 42, 54, 94)
(154, 61, 79, 76, 70, 46, 58, 132)
(155, 63, 79, 80, 81, 48, 59, 143)
(178, 61, 81, 79, 83, 48, 60, 153)
(165, 57, 80, 73, 81, 46, 64, 150)
(182, 58, 80, 77, 84, 44, 67, 145)
(193, 49, 88, 64, 91, 43, 64, 143)
(210, 49, 89, 60, 85, 38, 63, 134)
(202, 54, 91, 61, 83, 39, 63, 129)
(213, 51, 87, 62, 80, 41, 62, 135)
(214, 50, 87, 76, 89, 50, 58, 133)
(189, 50, 89, 74, 82, 46, 55, 106)
(169, 46, 86, 73, 84, 48, 58, 113)
(188, 44, 84, 76, 89, 50, 61, 114)
(179, 45, 85, 73, 86, 50, 60, 116)
(172, 42, 90, 53, 77, 45, 63, 121)
(177, 39, 84, 59, 73, 45, 63, 126)
(189, 45, 85, 63, 69, 48, 62, 121)
(169, 42, 84, 73, 62, 49, 62, 114)
(180, 44, 84, 80, 68, 48, 63, 111)
(174, 49, 92, 86, 71, 50, 65, 118)
(164, 50, 95, 89, 84, 52, 72, 107)
(195, 50, 104, 89, 84, 55, 75, 116)
(201, 55, 112, 85, 87, 53, 82, 135)
(196, 62, 123, 101, 90, 56, 88, 132)
(199, 68, 124, 110, 85, 54, 93, 135)
(208, 69, 123, 111, 73, 52, 93, 142)
(165, 67, 122, 117, 74, 47, 93, 146)
(180, 65, 112, 114, 74, 49, 87, 145)
(177, 59, 99, 94, 65, 45, 83, 139)
(172, 49, 87, 80, 70, 51, 78, 141)
(174, 47, 81, 75, 76, 53, 73, 136)
(191, 46, 70, 68, 75, 56, 71, 126)
(195, 47, 76, 71, 72, 58, 65, 138)
(207, 46, 78, 72, 72, 60, 66, 159)
(202, 46, 82, 75, 69, 53, 63, 143)
(213, 47, 82, 78, 75, 53, 59, 149)
(218, 50, 86, 69, 74, 52, 61, 180)
(204, 51, 84, 73, 80, 47, 67, 158)
(206, 53, 79, 76, 82, 45, 68, 159)
(203, 53, 79, 74, 90, 50, 68, 166)
(184, 53, 85, 85, 84, 50, 70, 162)
(200, 53, 88, 90, 87, 47, 68, 131)
(194, 50, 94, 88, 80, 50, 64, 146)
(191, 50, 101, 87, 85, 51, 63, 135)
(197, 52, 100, 86, 85, 51, 63, 142)
(205, 51, 92, 72, 86, 50, 60, 136)
(172, 49, 87, 77, 83, 52, 58, 138)
(192, 52, 86, 73, 96, 55, 61, 146)
(201, 47, 82, 71, 91, 55, 59, 138)
(194, 45, 89, 75, 86, 52, 58, 126)
(182, 43, 94, 79, 87, 55, 69, 135)
(191, 44, 92, 68, 85, 55, 75, 138)
(203, 50, 88, 67, 73, 52, 73, 126)
(182, 52, 90, 69, 70, 50, 73, 124)
(184, 61, 81, 67, 74, 52, 73, 124)
(192, 64, 83, 69, 67, 55, 66, 135)
(180, 71, 83, 72, 69, 53, 68, 135)
(132, 75, 83, 78, 75, 49, 69, 131)
(128, 82, 85, 82, 80, 56, 81, 151)
(124, 94, 88, 92, 76, 60, 104, 154)
(114, 128, 94, 92, 89, 59, 137, 141)
(115, 195, 134, 109, 118, 74, 144, 131)
(118, 205, 152, 115, 119, 86, 160, 158)
(118, 227, 180, 125, 129, 92, 182, 143)
(125, 230, 182, 116, 128, 92, 199, 144)
(121, 234, 195, 115, 128, 91, 194, 144)
(128, 217, 183, 107, 109, 90, 205, 160)
(128, 211, 178, 96, 120, 119, 200, 161)
(150, 189, 145, 75, 118, 126, 194, 165)
(149, 180, 143, 74, 135, 129, 180, 164)
(173, 164, 117, 71, 131, 137, 188, 193)
(188, 144, 108, 59, 150, 164, 219, 205)
(184, 148, 113, 72, 148, 152, 245, 191)
(174, 155, 127, 76, 142, 148, 236, 198)
(205, 156, 123, 76, 132, 146, 238, 209)
(188, 155, 126, 80, 151, 147, 226, 210)
(169, 143, 119, 80, 139, 108, 179, 215)
(175, 140, 103, 74, 128, 91, 141, 216)
(199, 133, 89, 78, 127, 80, 139, 209)
(171, 137, 111, 78, 122, 75, 127, 225)
(187, 143, 126, 83, 92, 58, 128, 214)
(197, 136, 147, 84, 74, 57, 128, 229)
(190, 143, 153, 83, 74, 55, 127, 220)
(173, 163, 166, 84, 68, 63, 135, 228)
(173, 244, 233, 107, 82, 67, 144, 220)
(190, 344, 324, 148, 104, 77, 152, 297)
(198, 492, 424, 195, 128, 90, 166, 301)
(212, 556, 493, 214, 168, 137, 203, 438)
(214, 620, 568, 239, 180, 142, 214, 473)
(236, 768, 646, 280, 220, 161, 213, 527)
(255, 813, 657, 319, 258, 186, 237, 494)
(270, 778, 620, 306, 259, 183, 235, 499)
(299, 909, 664, 360, 263, 152, 210, 485)
(316, 964, 694, 405, 281, 154, 239, 478)
(326, 940, 687, 416, 290, 175, 261, 431)
(318, 967, 668, 386, 259, 150, 238, 428)
(320, 1059, 726, 415, 275, 156, 250, 425)
(294, 959, 664, 385, 266, 162, 258, 308)
(317, 925, 601, 359, 259, 175, 255, 294)
(312, 904, 563, 338, 218, 146, 252, 300)
(297, 848, 571, 339, 216, 145, 246, 302)
(285, 779, 537, 323, 183, 149, 243, 282)
(290, 760, 516, 301, 167, 147, 232, 286)
(263, 742, 503, 274, 146, 123, 202, 282)
(250, 725, 503, 262, 142, 129, 175, 242)
(274, 699, 499, 283, 154, 128, 193, 275)
(263, 625, 444, 262, 156, 114, 181, 281)
(252, 594, 440, 259, 152, 113, 186, 290)
(280, 539, 432, 251, 145, 112, 181, 308)
(295, 528, 405, 268, 172, 102, 180, 335)
(322, 640, 447, 306, 203, 105, 173, 309)
(337, 643, 443, 299, 202, 106, 204, 288)
(339, 638, 445, 303, 208, 102, 197, 280)
(322, 784, 551, 367, 250, 137, 207, 286)
(303, 746, 536, 367, 256, 140, 247, 289)
(255, 725, 505, 330, 245, 157, 266, 301)
(253, 766, 517, 338, 269, 187, 254, 315)
(256, 799, 534, 339, 292, 202, 254, 315)
(234, 661, 439, 284, 268, 201, 280, 291)
(229, 633, 436, 288, 316, 244, 279, 263)
(228, 522, 387, 270, 351, 263, 261, 235)
(220, 468, 362, 267, 336, 245, 263, 226)
(250, 505, 356, 293, 335, 249, 281, 248)
(247, 560, 384, 303, 337, 249, 246, 225)
(248, 619, 407, 306, 302, 212, 213, 230)
(254, 654, 422, 298, 243, 172, 202, 238)
(300, 725, 487, 340, 264, 172, 211, 233)
(269, 703, 495, 321, 240, 159, 195, 221)
(272, 706, 486, 318, 247, 144, 208, 231)
(301, 718, 501, 314, 213, 133, 197, 251)
(293, 741, 518, 334, 215, 136, 203, 257)
(271, 727, 554, 325, 192, 142, 179, 324)
(318, 734, 622, 378, 218, 138, 179, 344)
(323, 698, 618, 386, 218, 148, 188, 376)
(297, 676, 599, 366, 240, 166, 201, 426)
(309, 663, 617, 369, 237, 166, 201, 452)
(295, 608, 541, 345, 234, 154, 201, 429)
(248, 594, 509, 293, 213, 157, 204, 426)
(245, 613, 526, 297, 224, 157, 186, 421)
(287, 579, 512, 307, 207, 130, 172, 402)
(279, 526, 464, 293, 206, 123, 186, 503)
(274, 556, 491, 302, 205, 135, 189, 668)
(280, 523, 428, 297, 203, 121, 196, 695)
(272, 527, 394, 268, 174, 97, 198, 688)
(226, 536, 397, 251, 157, 117, 195, 670)
(225, 599, 452, 266, 161, 162, 237, 596)
(206, 528, 421, 241, 182, 178, 250, 383)
(216, 545, 425, 233, 181, 179, 251, 304)
(222, 520, 428, 239, 188, 199, 274, 286)
(224, 514, 419, 242, 209, 202, 282, 270)
(221, 506, 418, 219, 213, 173, 249, 210)
(215, 531, 410, 216, 193, 196, 249, 187)
(203, 557, 430, 236, 235, 230, 258, 206)
(199, 591, 444, 254, 333, 289, 234, 200)
(237, 595, 444, 243, 324, 284, 233, 213)
(240, 571, 428, 245, 324, 290, 232, 220)
(268, 566, 469, 272, 328, 263, 215, 244)
(265, 550, 444, 251, 300, 245, 190, 224)
(265, 487, 409, 208, 174, 152, 173, 209)
(233, 454, 422, 228, 187, 176, 182, 183)
(217, 405, 369, 231, 212, 170, 168, 178)
(202, 399, 309, 202, 212, 175, 166, 152)
(189, 361, 298, 206, 219, 172, 164, 175)
(203, 366, 284, 208, 212, 178, 163, 187)
(203, 383, 252, 206, 214, 153, 161, 181)
(243, 372, 257, 184, 174, 147, 178, 205)
(228, 324, 239, 176, 164, 137, 175, 205)
(236, 370, 261, 194, 160, 132, 199, 187)
(236, 344, 249, 191, 158, 125, 201, 172)
(226, 330, 245, 172, 135, 129, 186, 163)
(177, 326, 230, 171, 154, 128, 168, 120)
(179, 352, 236, 170, 152, 123, 158, 125)
(196, 259, 184, 125, 139, 107, 122, 137)
(170, 249, 181, 110, 130, 90, 111, 138)
(167, 228, 172, 108, 125, 81, 104, 143)
(181, 243, 182, 104, 122, 86, 123, 146)
(174, 209, 173, 113, 139, 99, 134, 134)
(172, 255, 196, 115, 134, 105, 130, 119)
(195, 275, 227, 141, 135, 120, 154, 141)
(206, 303, 237, 153, 188, 165, 178, 149)
(216, 288, 238, 167, 211, 200, 184, 156)
(246, 323, 239, 165, 209, 202, 187, 186)
(223, 318, 229, 174, 244, 236, 209, 184)
(205, 319, 227, 173, 249, 238, 210, 177)
(224, 290, 214, 164, 222, 214, 198, 177)
(222, 302, 219, 167, 228, 205, 223, 221)
(189, 283, 239, 187, 249, 222, 255, 205)
(187, 290, 255, 195, 246, 190, 263, 212)
(193, 318, 246, 185, 247, 191, 285, 230)
(205, 314, 252, 192, 256, 189, 285, 245)
(190, 310, 246, 187, 232, 169, 274, 208)
(206, 329, 317, 204, 212, 140, 245, 224)
(212, 349, 321, 213, 230, 150, 234, 242)
(234, 379, 337, 215, 234, 140, 210, 223)
(201, 398, 363, 223, 258, 163, 205, 199)
(228, 412, 385, 244, 253, 163, 190, 220)
(227, 404, 323, 214, 245, 158, 186, 207)
(226, 386, 311, 207, 196, 140, 173, 179)
(196, 340, 283, 207, 187, 141, 189, 182)
(214, 325, 243, 195, 134, 114, 209, 193)
(238, 352, 260, 197, 142, 103, 220, 206)
(301, 487, 320, 235, 190, 129, 288, 231)
(319, 472, 317, 233, 202, 138, 291, 237)
(331, 495, 351, 254, 224, 153, 286, 287)
(342, 498, 360, 266, 269, 203, 290, 343)
(328, 508, 342, 251, 277, 224, 310, 333)
(272, 409, 287, 229, 263, 231, 276, 342)
(282, 455, 301, 248, 298, 257, 329, 353)
(268, 425, 265, 231, 295, 252, 333, 326)
(239, 415, 269, 233, 249, 216, 343, 277)
(222, 431, 309, 259, 258, 206, 325, 316)
(222, 415, 317, 264, 250, 191, 321, 293)
(217, 448, 360, 265, 224, 168, 299, 286)
(256, 485, 396, 314, 258, 186, 297, 306)
(266, 499, 390, 315, 276, 184, 280, 305)
(310, 471, 356, 292, 264, 183, 276, 251)
(305, 459, 345, 290, 262, 181, 256, 253)
(292, 377, 298, 273, 242, 163, 213, 261)
(275, 401, 283, 223, 206, 147, 195, 227)
(297, 431, 334, 246, 209, 149, 220, 236)
(312, 532, 458, 366, 274, 155, 261, 315)
(315, 541, 466, 373, 294, 160, 262, 303)
(321, 551, 464, 368, 293, 168, 284, 291)
(312, 517, 449, 360, 276, 159, 288, 311)
(300, 508, 430, 349, 260, 151, 276, 303)
(244, 373, 296, 235, 200, 141, 259, 251)
(234, 349, 284, 237, 194, 130, 265, 259)
(247, 349, 319, 247, 199, 121, 240, 267)
(259, 307, 306, 247, 201, 122, 251, 250)
(251, 252, 265, 217, 193, 119, 230, 243)
(257, 304, 320, 236, 178, 109, 226, 214)
(255, 307, 327, 220, 175, 128, 218, 207)
(249, 298, 293, 210, 178, 128, 217, 234)
(230, 317, 292, 206, 179, 127, 199, 213)
(213, 335, 298, 214, 182, 127, 208, 212)
(196, 290, 219, 172, 172, 118, 178, 214)
(279, 412, 314, 244, 197, 117, 183, 204)
(305, 430, 329, 256, 193, 111, 198, 156)
(315, 424, 343, 266, 195, 108, 203, 171)
(327, 410, 346, 258, 194, 108, 195, 163)
(334, 402, 343, 249, 192, 110, 214, 169)
(277, 300, 290, 206, 144, 89, 216, 214)
(248, 272, 271, 194, 173, 113, 238, 240)
(245, 269, 270, 196, 181, 113, 234, 240)
(252, 311, 308, 238, 207, 117, 234, 245)
(232, 303, 311, 247, 211, 115, 201, 229)
(243, 335, 305, 232, 237, 127, 208, 213)
(233, 325, 287, 219, 212, 112, 191, 187)
(223, 317, 272, 207, 207, 112, 181, 175)
(214, 287, 251, 195, 213, 133, 191, 189)
(212, 294, 249, 191, 216, 139, 207, 192)
(221, 266, 205, 161, 196, 127, 182, 172)
(195, 249, 206, 160, 194, 124, 158, 157)
(243, 288, 248, 179, 192, 123, 162, 193)
(227, 293, 236, 145, 167, 92, 152, 170)
(241, 290, 269, 190, 180, 91, 150, 177)
(215, 251, 271, 195, 160, 91, 169, 183)
(256, 268, 271, 194, 170, 98, 182, 215)
(213, 249, 235, 178, 165, 97, 178, 180)
(248, 236, 220, 180, 154, 97, 184, 195)
(255, 284, 193, 156, 141, 91, 166, 190)
(251, 296, 193, 154, 169, 109, 161, 178)
(242, 283, 193, 155, 165, 102, 155, 153)
(243, 260, 189, 150, 169, 100, 156, 152)
(245, 279, 196, 155, 188, 102, 173, 159)
(225, 242, 182, 129, 180, 100, 179, 154)
(266, 233, 183, 123, 152, 77, 166, 167)
(238, 232, 179, 118, 144, 75, 156, 156)
(254, 240, 186, 134, 150, 78, 159, 177)
(241, 270, 206, 145, 135, 77, 158, 172)
(264, 249, 204, 148, 135, 80, 155, 176)
(233, 244, 195, 149, 134, 85, 165, 180)
(251, 256, 201, 152, 155, 93, 163, 179)
(236, 268, 224, 148, 139, 89, 162, 166)
(233, 220, 224, 138, 126, 85, 165, 173)
(211, 218, 236, 138, 119, 85, 192, 184)
(209, 276, 252, 161, 131, 91, 214, 184)
(207, 285, 272, 181, 130, 83, 216, 184)
(205, 276, 259, 178, 141, 89, 212, 193)
(185, 284, 255, 176, 154, 91, 193, 178)
(211, 288, 238, 171, 153, 87, 165, 164)
(210, 238, 240, 158, 144, 71, 131, 161)
(212, 229, 217, 132, 134, 70, 129, 159)
(226, 240, 208, 130, 128, 77, 148, 147)
(244, 208, 177, 112, 126, 74, 138, 150)
(243, 233, 175, 109, 128, 91, 152, 155)
(244, 241, 162, 97, 119, 92, 142, 157)
(248, 334, 245, 175, 124, 93, 163, 178)
(259, 332, 249, 177, 121, 85, 151, 180)
(273, 341, 258, 183, 116, 90, 151, 176)
(253, 333, 270, 186, 118, 71, 155, 180)
(263, 327, 260, 186, 123, 72, 161, 178)
(247, 232, 178, 124, 114, 77, 157, 158)
(225, 223, 166, 115, 115, 84, 168, 150)
(190, 216, 150, 104, 113, 78, 166, 142)
(205, 194, 127, 93, 108, 83, 151, 150)
(196, 181, 138, 89, 101, 83, 154, 127)
(212, 159, 146, 85, 110, 80, 137, 130)
(211, 157, 148, 87, 117, 68, 132, 137)
(205, 154, 147, 90, 118, 67, 140, 140)
(191, 174, 157, 90, 121, 69, 141, 125)
(208, 162, 136, 86, 124, 65, 141, 135)
(192, 173, 130, 78, 103, 62, 134, 134)
(212, 184, 157, 94, 93, 61, 134, 141)
(229, 192, 193, 129, 116, 77, 150, 146)
(223, 185, 184, 130, 125, 80, 153, 138)
(186, 207, 213, 146, 127, 94, 168, 154)
(181, 202, 213, 151, 142, 97, 183, 158)
(196, 185, 197, 140, 163, 103, 188, 165)
(217, 183, 165, 111, 145, 102, 196, 154)
(224, 172, 164, 108, 140, 99, 192, 152)
(228, 160, 143, 86, 143, 90, 177, 128)
(243, 170, 147, 83, 136, 85, 180, 134)
(200, 161, 140, 91, 112, 81, 172, 118)
(158, 159, 138, 88, 115, 73, 152, 118)
(174, 196, 137, 90, 110, 68, 150, 135)
(168, 202, 136, 93, 106, 64, 147, 137)
(166, 204, 133, 91, 96, 69, 154, 141)
(209, 215, 131, 82, 107, 65, 152, 135)
(212, 205, 139, 82, 98, 61, 143, 134)
(201, 179, 139, 75, 121, 65, 163, 127)
(210, 169, 131, 68, 132, 74, 170, 134)
(205, 167, 145, 86, 133, 69, 165, 123)
(172, 158, 146, 93, 122, 68, 160, 131)
(192, 186, 176, 106, 128, 74, 163, 164)
(196, 182, 176, 114, 110, 75, 163, 166)
(195, 182, 174, 122, 121, 74, 158, 166)
(192, 175, 155, 107, 118, 80, 148, 174)
(209, 170, 156, 103, 118, 85, 147, 186)
(190, 144, 123, 89, 117, 82, 152, 174)
(192, 162, 143, 92, 114, 81, 135, 203)
(230, 216, 178, 96, 98, 82, 136, 204)
(226, 218, 190, 103, 97, 77, 134, 202)
(207, 235, 202, 110, 103, 72, 140, 185)
(203, 229, 194, 109, 97, 66, 132, 189)
(193, 224, 181, 97, 94, 61, 148, 155)
(134, 177, 161, 101, 81, 54, 146, 170)
(173, 180, 166, 109, 94, 57, 144, 181)
(207, 187, 155, 109, 97, 59, 159, 198)
(217, 197, 154, 114, 105, 64, 161, 205)
(212, 187, 147, 115, 107, 59, 166, 214)
(215, 184, 126, 100, 107, 56, 166, 202)
(185, 184, 109, 91, 105, 55, 172, 196)
(184, 184, 106, 85, 93, 55, 177, 223)
(192, 200, 140, 107, 90, 58, 181, 257)
(193, 263, 173, 121, 116, 66, 169, 277)
(189, 259, 196, 151, 116, 67, 166, 301)
(213, 252, 222, 249, 111, 67, 156, 331)
(199, 240, 232, 265, 112, 64, 131, 321)
(188, 227, 217, 255, 106, 58, 114, 321)
(225, 170, 208, 256, 76, 54, 96, 324)
(236, 189, 225, 272, 76, 55, 107, 369)
(218, 199, 228, 196, 101, 60, 114, 364)
(250, 206, 244, 201, 117, 64, 125, 390)
(269, 205, 256, 204, 118, 65, 153, 420)
(250, 188, 263, 213, 124, 64, 155, 415)
(240, 164, 236, 187, 121, 65, 152, 364)
(235, 151, 208, 186, 103, 60, 154, 350)
(207, 129, 173, 156, 97, 65, 145, 304)
(193, 144, 158, 156, 105, 68, 131, 217)
(209, 167, 138, 142, 105, 66, 126, 188)
(239, 188, 144, 133, 116, 79, 156, 190)
(285, 286, 210, 161, 137, 90, 153, 180)
(328, 319, 225, 178, 151, 104, 204, 220)
(334, 325, 225, 182, 153, 105, 214, 257)
(350, 350, 239, 183, 169, 115, 215, 267)
(352, 351, 240, 187, 181, 112, 190, 293)
(409, 293, 203, 173, 178, 113, 191, 394)
(366, 261, 195, 171, 169, 101, 140, 386)
(358, 254, 190, 171, 171, 102, 109, 372)
(326, 238, 193, 183, 181, 112, 113, 405)
(322, 233, 199, 185, 181, 120, 115, 394)
(199, 213, 183, 172, 171, 113, 115, 343)
(187, 211, 177, 169, 174, 122, 114, 335)
(180, 213, 178, 164, 173, 129, 115, 376)
(219, 198, 145, 139, 148, 114, 112, 445)
(230, 208, 135, 130, 133, 103, 109, 462)
(226, 222, 145, 140, 134, 105, 96, 460)
(249, 223, 146, 134, 128, 95, 87, 536)
(249, 210, 145, 136, 128, 102, 100, 550)
(210, 186, 145, 137, 122, 101, 97, 503)
(182, 183, 134, 126, 115, 98, 106, 554)
(212, 164, 123, 115, 111, 94, 103, 550)
(195, 159, 116, 106, 110, 103, 123, 580)
(185, 153, 111, 100, 101, 82, 118, 551)
(198, 145, 113, 100, 102, 86, 141, 558)
(187, 111, 112, 102, 102, 87, 141, 493)
(162, 103, 107, 90, 89, 84, 147, 476)
(155, 98, 101, 91, 79, 65, 137, 354)
(149, 102, 103, 92, 78, 68, 132, 373)
(142, 107, 110, 85, 80, 61, 106, 324)
(167, 104, 107, 85, 77, 58, 97, 327)
(169, 104, 110, 90, 81, 59, 97, 366)
(216, 105, 117, 94, 87, 61, 95, 386)
(232, 105, 119, 94, 87, 65, 99, 369)
(234, 101, 109, 95, 87, 68, 102, 411)
(216, 105, 111, 97, 94, 70, 105, 417)
(232, 107, 105, 99, 94, 66, 105, 448)
(182, 105, 99, 89, 91, 67, 102, 433)
(199, 98, 102, 83, 84, 61, 97, 440)
(217, 94, 99, 81, 75, 57, 97, 408)
(223, 94, 95, 76, 73, 61, 99, 407)
(201, 87, 95, 70, 73, 62, 91, 354)
(203, 84, 95, 70, 68, 62, 90, 336)
(167, 82, 86, 65, 68, 61, 91, 323)
(126, 82, 86, 65, 73, 56, 89, 316)
(111, 72, 85, 66, 77, 55, 94, 312)
(99, 75, 89, 74, 80, 55, 91, 272)
(97, 72, 90, 99, 85, 59, 85, 305)
(121, 69, 97, 118, 98, 63, 83, 293)
(143, 71, 93, 164, 124, 69, 81, 294)
(180, 76, 94, 234, 136, 65, 72, 290)
(296, 75, 109, 361, 168, 69, 72, 321)
(361, 100, 140, 401, 185, 79, 83, 307)
(470, 107, 163, 556, 206, 91, 91, 308)
(514, 110, 195, 570, 195, 89, 95, 308)
(534, 112, 196, 571, 195, 94, 99, 301)
(490, 114, 188, 526, 171, 95, 101, 312)
(452, 100, 180, 529, 173, 90, 98, 309)
(344, 106, 173, 377, 148, 81, 102, 369)
(284, 106, 155, 446, 157, 89, 103, 432)
(236, 103, 155, 432, 157, 103, 102, 452)
(244, 100, 156, 405, 155, 110, 102, 438)
(253, 98, 170, 375, 133, 106, 99, 474)
(241, 97, 165, 378, 141, 116, 86, 503)
(245, 104, 161, 245, 148, 126, 85, 519)
(230, 105, 176, 213, 136, 114, 88, 530)
(231, 141, 184, 209, 136, 108, 88, 701)
(287, 144, 202, 219, 131, 112, 98, 707)
(299, 142, 196, 204, 146, 113, 104, 920)
(326, 143, 191, 198, 138, 110, 101, 1124)
(338, 164, 182, 214, 156, 118, 103, 1268)
(382, 160, 192, 237, 158, 125, 126, 1280)
(401, 161, 164, 264, 176, 123, 217, 1391)
(849, 157, 168, 259, 171, 112, 285, 1288)
(1007, 183, 178, 281, 175, 99, 296, 1101)
(1197, 258, 175, 269, 218, 124, 295, 949)
(1217, 315, 152, 260, 239, 202, 287, 919)
(1231, 328, 136, 197, 247, 410, 278, 800)
(993, 330, 134, 208, 238, 473, 274, 731)
(838, 321, 124, 194, 232, 567, 264, 730)
(540, 261, 124, 201, 188, 566, 273, 688)
(451, 182, 143, 211, 162, 547, 271, 540)
(342, 152, 141, 207, 136, 418, 211, 398)
(302, 147, 138, 177, 138, 346, 111, 373)
(237, 126, 148, 168, 128, 150, 110, 332)
(218, 112, 147, 176, 115, 126, 82, 351)
(209, 84, 130, 145, 115, 102, 78, 345)
(263, 85, 127, 147, 114, 93, 81, 392)
(252, 81, 126, 162, 115, 89, 79, 359)
(250, 79, 116, 156, 116, 82, 73, 347)
(337, 71, 121, 151, 119, 80, 90, 331)
(346, 70, 118, 145, 114, 81, 91, 324)
(325, 68, 114, 143, 117, 75, 88, 261)
(317, 72, 109, 148, 121, 79, 86, 252)
(318, 73, 98, 147, 124, 82, 88, 254)
(327, 65, 96, 143, 135, 90, 70, 307)
(325, 61, 101, 154, 137, 91, 75, 302)
(314, 72, 101, 164, 135, 90, 75, 300)
(342, 71, 99, 159, 131, 92, 79, 321)
(343, 71, 106, 187, 151, 98, 76, 308)
(239, 74, 108, 183, 141, 95, 73, 225)
(250, 79, 107, 182, 157, 104, 71, 251)
(268, 79, 143, 189, 159, 107, 69, 262)
(220, 84, 144, 182, 157, 101, 70, 240)
(224, 88, 138, 161, 136, 98, 71, 244)
(250, 91, 152, 183, 141, 94, 71, 253)
(242, 96, 156, 178, 120, 83, 68, 223)
(214, 87, 125, 177, 108, 75, 72, 204)
(212, 75, 122, 170, 92, 75, 65, 203)
(209, 69, 124, 171, 89, 67, 68, 224)
(208, 64, 104, 154, 65, 68, 65, 261)
(228, 52, 98, 176, 78, 66, 73, 278)
(253, 54, 103, 169, 93, 71, 70, 274)
(290, 58, 105, 168, 96, 79, 82, 308)
(293, 59, 107, 158, 97, 85, 80, 306)
(269, 62, 112, 147, 95, 83, 83, 282)
(255, 63, 111, 115, 93, 83, 80, 277)
(255, 67, 113, 102, 83, 79, 80, 279)
(225, 67, 112, 120, 82, 76, 67, 268)
(211, 73, 107, 133, 84, 79, 69, 266)
(242, 72, 95, 128, 94, 81, 63, 307)
(246, 73, 94, 139, 86, 84, 67, 317)
(219, 67, 94, 139, 87, 87, 67, 311)
(240, 70, 108, 121, 84, 80, 71, 294)
(259, 67, 109, 123, 92, 80, 71, 289)
(280, 61, 108, 137, 87, 81, 72, 243)
(268, 66, 107, 128, 86, 76, 68, 228)
(286, 71, 108, 129, 83, 75, 75, 250)
(287, 72, 106, 138, 82, 77, 75, 273)
(295, 73, 104, 143, 78, 69, 74, 300)
(256, 80, 121, 130, 77, 67, 77, 328)
(284, 81, 118, 146, 85, 74, 74, 320)
(278, 80, 111, 140, 85, 83, 74, 312)
(272, 78, 96, 146, 96, 89, 80, 306)
(292, 76, 100, 149, 90, 91, 76, 272)
(300, 76, 76, 151, 94, 91, 76, 251)
(279, 69, 86, 154, 87, 85, 77, 269)
(326, 68, 109, 181, 95, 80, 79, 288)
(334, 64, 109, 180, 89, 75, 72, 281)
(310, 66, 104, 176, 96, 73, 75, 291)
(315, 63, 111, 173, 90, 73, 89, 264)
(317, 62, 121, 160, 94, 77, 92, 249)
(278, 64, 100, 136, 98, 84, 90, 256)
(262, 64, 110, 133, 104, 85, 93, 247)
(246, 62, 115, 120, 100, 84, 94, 257)
(235, 66, 111, 129, 100, 84, 81, 310)
(288, 70, 96, 137, 97, 86, 81, 327)
(292, 72, 107, 141, 85, 83, 80, 325)
(281, 73, 93, 141, 75, 84, 76, 322)
(292, 74, 86, 160, 90, 86, 81, 328)
(290, 71, 84, 168, 92, 85, 81, 285)
(280, 69, 83, 175, 89, 78, 80, 298)
(268, 72, 69, 166, 89, 77, 80, 277)
(296, 73, 90, 177, 98, 73, 81, 287)
(300, 72, 108, 165, 85, 75, 79, 297)
(298, 73, 109, 161, 89, 75, 79, 300)
(257, 75, 117, 145, 87, 77, 78, 277)
(278, 71, 124, 157, 81, 79, 81, 284)
(307, 70, 121, 144, 81, 82, 78, 278)
(311, 69, 110, 135, 76, 75, 78, 254)
(319, 69, 108, 127, 87, 76, 85, 250)
(324, 67, 102, 126, 89, 74, 85, 239)
(317, 69, 101, 116, 97, 73, 81, 237)
(276, 70, 98, 113, 87, 66, 87, 240)
(271, 71, 103, 131, 93, 75, 85, 226)
(255, 64, 104, 135, 76, 77, 73, 227)
(254, 66, 101, 133, 87, 81, 73, 225)
(272, 63, 89, 129, 84, 79, 73, 210)
(304, 63, 82, 127, 92, 84, 67, 218)
(306, 60, 79, 136, 96, 84, 64, 235)
(324, 67, 86, 150, 99, 80, 68, 245)
(318, 63, 89, 159, 93, 76, 71, 279)
(282, 64, 91, 162, 94, 76, 70, 285)
(252, 62, 94, 172, 88, 73, 77, 272)
(297, 66, 94, 158, 84, 71, 78, 290)
(309, 60, 85, 143, 86, 69, 81, 279)
(307, 68, 99, 140, 80, 78, 80, 266)
(319, 65, 102, 145, 81, 75, 82, 327)
(352, 67, 95, 129, 83, 77, 82, 331)
(314, 72, 91, 118, 89, 81, 90, 327)
(293, 75, 106, 138, 84, 83, 84, 355)
(288, 76, 96, 139, 97, 80, 81, 349)
(303, 78, 95, 133, 108, 82, 84, 292)
(265, 76, 96, 142, 114, 82, 76, 305)
(277, 70, 95, 146, 109, 80, 64, 290)
(266, 68, 97, 137, 119, 83, 70, 253)
(262, 60, 96, 135, 109, 82, 76, 243)
(230, 59, 93, 125, 97, 81, 66, 264)
(201, 56, 95, 116, 86, 79, 68, 246)
(149, 56, 95, 112, 82, 81, 68, 235)
(140, 55, 79, 97, 70, 74, 72, 257)
(164, 54, 88, 111, 92, 70, 68, 266)
(173, 67, 98, 126, 96, 69, 69, 239)
(202, 72, 107, 141, 104, 72, 75, 228)
(227, 77, 120, 172, 102, 61, 77, 261)
(246, 77, 122, 205, 111, 68, 74, 253)
(247, 78, 114, 224, 96, 70, 71, 263)
(259, 67, 116, 222, 92, 71, 84, 279)
(236, 67, 110, 218, 95, 69, 76, 280)
(212, 63, 96, 203, 101, 72, 76, 246)
(198, 62, 100, 180, 92, 71, 73, 270)
(191, 61, 101, 143, 95, 76, 76, 260)
(149, 57, 91, 133, 94, 75, 62, 246)
(165, 58, 87, 157, 89, 73, 68, 248)
(192, 63, 99, 154, 89, 73, 67, 267)
(222, 72, 95, 135, 88, 70, 69, 280)
(216, 73, 99, 151, 83, 64, 69, 287)
(224, 74, 98, 175, 92, 60, 75, 290)
(224, 80, 95, 147, 93, 63, 75, 302)
(237, 77, 80, 153, 108, 72, 72, 303)
(235, 74, 81, 152, 107, 71, 68, 266)
(228, 75, 83, 136, 111, 74, 62, 246)
(222, 78, 81, 119, 106, 73, 67, 233)
(228, 82, 117, 138, 120, 81, 68, 215)
(202, 83, 124, 122, 105, 83, 71, 226)
(176, 81, 124, 126, 106, 84, 71, 202)
(185, 81, 115, 132, 100, 85, 78, 235)
(216, 79, 118, 125, 101, 89, 74, 276)
(205, 67, 94, 113, 87, 82, 68, 282)
(196, 62, 82, 135, 81, 71, 71, 263)
(190, 57, 77, 128, 78, 75, 69, 261)
(184, 54, 79, 121, 82, 68, 63, 226)
(156, 55, 78, 136, 78, 64, 60, 212)
(156, 51, 72, 140, 71, 60, 61, 221)
(181, 58, 89, 125, 79, 60, 63, 222)
(182, 62, 93, 129, 80, 55, 68, 282)
(181, 61, 92, 127, 80, 65, 68, 290)
(189, 62, 105, 126, 80, 63, 66, 282)
(250, 64, 105, 121, 78, 67, 71, 269)
(253, 67, 99, 121, 82, 68, 63, 262)
(261, 68, 98, 124, 86, 75, 65, 200)
(259, 72, 108, 133, 87, 71, 70, 194)
(262, 68, 106, 141, 92, 71, 78, 199)
(224, 75, 101, 142, 99, 73, 76, 227)
(200, 71, 100, 136, 92, 72, 75, 243)
(187, 69, 111, 133, 90, 69, 75, 269)
(197, 70, 101, 126, 88, 70, 73, 270)
(196, 69, 89, 104, 80, 72, 62, 251)
(188, 61, 89, 136, 71, 67, 63, 268)
(211, 60, 85, 138, 67, 69, 67, 262)
(212, 56, 69, 136, 79, 75, 61, 255)
(220, 51, 78, 143, 86, 73, 61, 257)
(239, 63, 78, 138, 88, 75, 60, 276)
(226, 65, 85, 95, 92, 78, 60, 231)
(204, 63, 89, 101, 98, 76, 63, 211)
(200, 65, 98, 115, 88, 67, 64, 179)
(250, 70, 90, 112, 90, 78, 72, 242)
(216, 62, 87, 109, 92, 75, 75, 246)
(213, 60, 81, 110, 87, 73, 74, 253)
(212, 63, 86, 102, 82, 73, 79, 262)
(233, 65, 87, 103, 95, 83, 90, 324)
(169, 62, 89, 99, 90, 75, 85, 286)
(176, 63, 94, 98, 83, 74, 83, 260)
(180, 67, 100, 90, 89, 80, 83, 252)
(192, 70, 103, 101, 89, 79, 78, 260)
(177, 68, 96, 86, 72, 70, 64, 200)
(162, 67, 98, 86, 66, 65, 65, 232)
(158, 63, 96, 85, 65, 63, 69, 233)
(201, 61, 91, 87, 58, 56, 71, 243)
(197, 59, 89, 74, 56, 60, 69, 234)
(195, 59, 87, 65, 63, 60, 72, 228)
(229, 60, 90, 87, 65, 62, 68, 223)
(228, 61, 101, 91, 66, 64, 66, 230)
(205, 59, 103, 92, 72, 62, 65, 240)
(199, 57, 100, 89, 72, 56, 62, 234)
(238, 57, 101, 90, 65, 60, 59, 259)
(209, 57, 97, 69, 66, 66, 60, 226)
(225, 64, 97, 86, 70, 68, 62, 243)
(214, 70, 102, 86, 70, 71, 59, 228)
(234, 69, 107, 89, 70, 72, 60, 233)
(226, 70, 113, 98, 72, 77, 58, 237)
(227, 71, 122, 102, 76, 74, 65, 240)
(250, 73, 130, 94, 84, 80, 69, 241)
(250, 72, 129, 97, 85, 87, 71, 241)
(242, 74, 126, 98, 85, 88, 75, 234)
(237, 71, 140, 102, 93, 87, 79, 241)
(258, 67, 134, 97, 91, 88, 72, 243)
(236, 57, 118, 115, 82, 80, 68, 235)
(241, 55, 116, 122, 78, 69, 71, 233)
(239, 53, 110, 121, 79, 67, 69, 252)
(231, 54, 85, 120, 72, 57, 66, 222)
(206, 52, 79, 125, 65, 55, 72, 208)
(225, 52, 79, 106, 64, 52, 69, 199)
(227, 46, 71, 92, 64, 57, 65, 212)
(234, 55, 85, 98, 78, 79, 63, 196)
(217, 58, 82, 94, 78, 79, 62, 203)
(237, 57, 79, 90, 78, 78, 60, 214)
(210, 62, 84, 101, 87, 84, 66, 231)
(211, 67, 86, 110, 85, 85, 65, 227)
(230, 63, 83, 106, 69, 67, 74, 230)
(225, 75, 87, 97, 65, 67, 71, 225)
(239, 78, 90, 93, 69, 69, 73, 241)
(243, 76, 85, 87, 65, 71, 71, 209)
(234, 72, 108, 84, 78, 69, 77, 212)
(208, 69, 100, 88, 81, 73, 72, 211)
(249, 62, 107, 118, 88, 76, 76, 229)
(218, 58, 112, 122, 87, 76, 75, 216)
(215, 59, 113, 116, 81, 72, 75, 231)
(208, 58, 94, 115, 69, 76, 68, 226)
(287, 57, 97, 126, 76, 78, 72, 239)
(263, 49, 87, 108, 70, 74, 70, 218)
(262, 56, 80, 122, 70, 74, 68, 226)
(260, 63, 90, 129, 76, 76, 65, 230)
(273, 65, 88, 137, 85, 75, 65, 230)
(221, 64, 87, 133, 82, 66, 62, 217)
(213, 68, 88, 131, 82, 67, 68, 229)
(227, 69, 99, 123, 90, 68, 70, 222)
(230, 64, 102, 140, 96, 69, 69, 208)
(226, 65, 103, 149, 90, 63, 72, 204)
(194, 69, 103, 140, 87, 64, 72, 228)
(183, 65, 101, 143, 87, 67, 65, 210)
(184, 58, 99, 146, 86, 64, 62, 224)
(178, 62, 89, 125, 72, 56, 64, 238)
(190, 68, 91, 109, 67, 57, 72, 261)
(188, 64, 86, 109, 68, 65, 68, 246)
(191, 64, 96, 100, 71, 64, 74, 249)
(174, 64, 89, 84, 61, 67, 79, 238)
(173, 62, 84, 76, 63, 66, 77, 220)
(182, 64, 83, 74, 65, 68, 67, 209)
(183, 65, 85, 73, 61, 63, 68, 224)
(185, 66, 78, 94, 54, 59, 62, 214)
(212, 71, 82, 97, 51, 56, 57, 200)
(233, 67, 81, 100, 56, 58, 59, 211)
(253, 59, 88, 96, 60, 66, 60, 223)
(251, 60, 92, 95, 61, 64, 62, 201)
(260, 58, 87, 80, 77, 71, 64, 223)
(247, 58, 80, 76, 82, 75, 73, 254)
(229, 64, 82, 77, 81, 75, 79, 251)
(185, 62, 73, 75, 81, 68, 80, 220)
(218, 59, 78, 81, 88, 72, 82, 217)
(219, 61, 78, 76, 82, 65, 81, 199)
(216, 55, 83, 80, 82, 62, 72, 178)
(234, 56, 89, 102, 80, 66, 65, 193)
(244, 62, 90, 120, 80, 66, 63, 203)
(252, 71, 92, 118, 72, 63, 61, 203)
(244, 74, 96, 122, 61, 63, 61, 204)
(243, 76, 101, 129, 63, 71, 62, 197)
(224, 76, 100, 118, 69, 66, 66, 184)
(230, 73, 104, 102, 69, 65, 70, 196)
(186, 64, 93, 101, 70, 65, 70, 193)
(217, 64, 87, 106, 74, 65, 69, 213)
(213, 62, 78, 95, 72, 58, 74, 212)
(229, 55, 79, 90, 68, 61, 67, 226)
(216, 54, 71, 103, 64, 61, 73, 226)
(208, 55, 88, 101, 70, 67, 70, 242)
(194, 54, 95, 99, 74, 72, 72, 229)
(232, 52, 96, 101, 76, 71, 70, 228)
(240, 55, 97, 99, 75, 69, 74, 265)
(231, 57, 96, 87, 74, 70, 66, 282)
(242, 58, 81, 90, 74, 63, 64, 271)
(224, 54, 76, 78, 72, 65, 64, 275)
(208, 58, 78, 89, 70, 66, 71, 314)
(178, 57, 69, 89, 72, 70, 69, 275)
(197, 62, 73, 87, 80, 69, 75, 283)
(213, 65, 77, 87, 74, 76, 79, 283)
(238, 68, 74, 94, 85, 73, 76, 310)
(230, 71, 71, 82, 98, 73, 67, 291)
(229, 75, 82, 84, 97, 69, 71, 296)
(235, 74, 86, 83, 93, 70, 61, 284)
(236, 77, 95, 84, 94, 63, 61, 304)
(217, 80, 102, 82, 83, 66, 62, 274)
(204, 80, 105, 84, 68, 69, 68, 273)
(247, 83, 103, 84, 68, 71, 70, 274)
(237, 80, 107, 95, 65, 72, 72, 250)
(219, 76, 97, 94, 68, 71, 73, 233)
(253, 72, 97, 87, 68, 65, 74, 244)
(256, 71, 100, 85, 62, 60, 71, 240)
(286, 64, 99, 114, 61, 62, 65, 249)
(319, 63, 90, 111, 68, 64, 70, 263)
(327, 63, 89, 134, 78, 67, 78, 272)
(313, 64, 84, 144, 80, 70, 77, 284)
(312, 60, 83, 161, 89, 75, 75, 264)
(265, 55, 79, 152, 89, 71, 74, 272)
(229, 58, 80, 156, 92, 69, 70, 264)
(214, 54, 86, 141, 89, 66, 59, 266)
(196, 56, 88, 146, 99, 68, 61, 234)
(200, 60, 85, 129, 94, 62, 65, 244)
(211, 64, 85, 122, 97, 63, 64, 253)
(206, 61, 93, 122, 91, 63, 65, 248)
(230, 63, 93, 122, 85, 64, 63, 235)
(241, 63, 91, 123, 83, 60, 70, 295)
(239, 61, 86, 125, 84, 63, 64, 302)
(233, 59, 99, 127, 83, 70, 65, 288)
(244, 62, 90, 129, 91, 68, 65, 296)
(244, 61, 88, 134, 88, 70, 65, 302)
(235, 60, 83, 117, 78, 74, 61, 242)
(246, 62, 89, 128, 77, 76, 64, 271)
(239, 63, 80, 124, 76, 75, 65, 256)
(235, 69, 91, 115, 72, 75, 68, 251)
(286, 71, 86, 106, 74, 72, 69, 254)
(315, 75, 92, 109, 85, 75, 71, 264)
(328, 71, 87, 91, 85, 74, 72, 216)
(337, 71, 90, 99, 90, 68, 74, 246)
(330, 61, 87, 125, 96, 73, 74, 241)
(271, 63, 88, 134, 97, 73, 76, 230)
(247, 59, 86, 135, 95, 70, 76, 251)
(235, 61, 90, 141, 102, 72, 73, 262)
(225, 61, 92, 169, 103, 75, 68, 269)
(250, 63, 81, 151, 93, 75, 71, 300)
(243, 58, 84, 151, 91, 74, 72, 289)
(260, 61, 92, 155, 87, 71, 68, 287)
(269, 63, 96, 159, 85, 73, 71, 296)
(273, 61, 99, 133, 78, 74, 74, 269)
(260, 65, 103, 135, 89, 73, 70, 292)
(263, 61, 105, 127, 88, 73, 71, 299)
(241, 63, 108, 152, 87, 73, 72, 275)
(209, 66, 106, 151, 79, 69, 67, 262)
(282, 75, 106, 142, 83, 67, 63, 265)
(276, 72, 99, 140, 71, 64, 64, 209)
(281, 78, 106, 158, 73, 72, 56, 201)
(372, 77, 103, 141, 89, 72, 62, 277)
(390, 76, 101, 168, 93, 70, 67, 279)
(343, 66, 92, 168, 85, 67, 76, 290)
(376, 71, 98, 204, 97, 74, 73, 294)
(378, 68, 93, 219, 105, 70, 78, 299)
(283, 62, 82, 234, 94, 77, 74, 251)
(295, 63, 82, 240, 106, 80, 80, 304)
(282, 68, 87, 249, 107, 80, 76, 301)
(254, 68, 85, 229, 102, 76, 77, 291)
(262, 65, 77, 219, 96, 70, 74, 306)
(277, 73, 84, 208, 93, 64, 73, 321)
(259, 72, 82, 185, 82, 73, 64, 274)
(257, 68, 83, 186, 87, 73, 68, 250)
(241, 62, 84, 184, 79, 72, 71, 257)
(228, 63, 93, 171, 78, 73, 73, 241)
(216, 60, 95, 163, 79, 73, 71, 221)
(200, 58, 93, 166, 77, 63, 73, 196)
(206, 57, 102, 153, 76, 62, 75, 240)
(245, 66, 129, 155, 79, 64, 71, 294)
(253, 70, 130, 149, 76, 67, 76, 295)
(253, 67, 131, 156, 81, 66, 85, 285)
(252, 71, 132, 145, 77, 64, 82, 294)
(258, 69, 125, 138, 75, 67, 74, 265)
(225, 66, 98, 131, 70, 62, 74, 192)
(210, 62, 88, 139, 67, 60, 66, 179)
(209, 67, 87, 161, 61, 59, 59, 171)
(273, 67, 88, 164, 68, 64, 57, 190)
(272, 74, 99, 173, 72, 62, 70, 209)
(269, 70, 94, 183, 71, 66, 71, 209)
(275, 71, 97, 193, 73, 66, 73, 218)
(322, 62, 93, 165, 79, 72, 72, 225)
(267, 58, 90, 161, 75, 73, 75, 217)
(252, 48, 81, 151, 71, 77, 63, 203)
(238, 53, 81, 127, 70, 72, 69, 211)
(233, 54, 82, 89, 73, 71, 71, 234)
(238, 58, 89, 82, 64, 67, 73, 257)
(240, 60, 95, 90, 69, 65, 74, 247)
(270, 62, 92, 93, 71, 68, 75, 251)
(278, 60, 91, 103, 76, 70, 67, 257)
(292, 65, 89, 104, 73, 73, 71, 237)
(228, 64, 88, 109, 71, 71, 71, 205)
(231, 63, 86, 99, 65, 73, 67, 237)
(223, 62, 83, 94, 66, 68, 73, 252)
(215, 60, 87, 94, 72, 69, 77, 255)
(232, 66, 106, 117, 77, 70, 67, 254)
(243, 68, 99, 110, 76, 69, 64, 258)
(230, 71, 94, 100, 76, 66, 64, 255)
(220, 76, 90, 97, 77, 73, 60, 264)
(224, 80, 93, 90, 73, 73, 62, 252)
(204, 69, 79, 61, 69, 71, 68, 264)
(183, 65, 82, 81, 72, 74, 67, 258)
(206, 65, 81, 90, 76, 80, 67, 226)
(213, 60, 82, 91, 71, 71, 67, 192)
(209, 59, 79, 92, 65, 71, 63, 196)
(213, 57, 68, 95, 64, 73, 68, 199)
(251, 64, 65, 84, 68, 72, 74, 239)
(244, 64, 71, 81, 65, 68, 78, 293)
(234, 64, 75, 103, 65, 69, 81, 309)
(254, 68, 79, 116, 73, 67, 88, 347)
(257, 71, 84, 119, 73, 65, 83, 371)
(227, 69, 88, 117, 72, 70, 83, 367)
(217, 67, 84, 113, 71, 70, 82, 333)
(256, 76, 86, 98, 71, 78, 87, 330)
(247, 72, 79, 84, 68, 78, 83, 286)
(255, 69, 77, 76, 68, 82, 82, 232)
(252, 72, 76, 87, 66, 83, 78, 213)
(255, 72, 79, 84, 70, 88, 74, 247)
(227, 61, 83, 79, 78, 83, 61, 250)
(222, 69, 86, 80, 80, 87, 58, 243)
(203, 72, 82, 75, 79, 83, 58, 251)
(212, 68, 82, 61, 75, 80, 62, 259)
(266, 69, 94, 74, 78, 78, 67, 245)
(245, 71, 85, 73, 76, 81, 72, 227)
(238, 66, 86, 72, 70, 83, 72, 221)
(218, 63, 92, 92, 73, 89, 72, 212)
(245, 62, 94, 102, 77, 86, 67, 226)
(191, 64, 79, 96, 72, 83, 70, 217)
(191, 68, 83, 95, 61, 77, 67, 213)
(197, 68, 78, 110, 67, 74, 68, 223)
(222, 68, 79, 121, 66, 65, 66, 246)
(212, 67, 72, 113, 62, 64, 68, 205)
(215, 64, 82, 120, 63, 63, 61, 184)
(242, 62, 97, 131, 68, 64, 60, 195)
(260, 61, 101, 117, 62, 57, 61, 191)
(253, 61, 93, 89, 57, 56, 64, 160)
(226, 59, 105, 91, 58, 58, 64, 166)
(222, 61, 96, 84, 62, 58, 63, 211)
(210, 57, 75, 64, 60, 63, 69, 216)
(204, 55, 70, 66, 63, 64, 67, 228)
(201, 58, 73, 67, 65, 64, 64, 231)
(270, 71, 58, 66, 69, 63, 65, 248)
(286, 68, 59, 62, 63, 61, 74, 233)
(295, 68, 62, 58, 59, 55, 71, 225)
(286, 67, 60, 56, 55, 55, 71, 213)
(275, 65, 57, 53, 50, 55, 77, 209)
(203, 53, 54, 47, 47, 55, 79, 190)
(168, 54, 51, 45, 44, 54, 73, 176)
(203, 55, 50, 55, 58, 62, 82, 180)
pose Pose.REST
(205, 58, 54, 58, 70, 67, 100, 177)
(209, 65, 61, 61, 76, 70, 120, 171)
(217, 181, 132, 86, 86, 75, 126, 171)
(220, 192, 140, 92, 89, 77, 155, 145)
(155, 195, 141, 86, 83, 70, 150, 118)
(136, 206, 146, 85, 86, 79, 172, 117)
(123, 218, 168, 96, 93, 82, 187, 133)
(118, 143, 125, 79, 88, 80, 187, 112)
(123, 132, 117, 71, 84, 79, 170, 107)
(146, 171, 137, 75, 110, 97, 170, 100)
(181, 171, 142, 78, 139, 102, 145, 96)
pose Pose.WAVE_IN
(213, 158, 116, 66, 135, 103, 101, 78)
(243, 154, 115, 60, 137, 105, 92, 80)
(260, 152, 134, 67, 140, 105, 88, 84)
(286, 103, 115, 62, 120, 92, 89, 87)
(363, 77, 102, 56, 76, 81, 79, 83)
(405, 70, 100, 55, 83, 74, 83, 76)
(454, 94, 94, 56, 89, 71, 84, 74)
(485, 99, 63, 48, 90, 77, 79, 70)
(470, 102, 58, 48, 93, 79, 78, 68)
(454, 106, 59, 47, 90, 71, 76, 66)
(417, 104, 56, 45, 79, 72, 71, 69)
(392, 86, 59, 42, 60, 73, 68, 68)
(339, 75, 63, 40, 49, 67, 64, 67)
(328, 67, 62, 39, 56, 67, 66, 66)
(245, 62, 59, 41, 56, 68, 61, 64)
(217, 62, 60, 40, 58, 69, 60, 53)
(96, 56, 61, 40, 57, 68, 60, 56)
(68, 61, 57, 41, 63, 71, 58, 54)
(59, 63, 56, 45, 54, 70, 56, 55)
(61, 59, 57, 44, 51, 69, 56, 59)
(55, 56, 55, 41, 50, 65, 60, 65)
(49, 60, 53, 39, 51, 65, 62, 62)
pose Pose.REST
(52, 59, 52, 40, 45, 58, 65, 63)
(54, 56, 53, 36, 43, 59, 62, 62)
(49, 51, 52, 36, 45, 59, 62, 60)
(50, 50, 49, 39, 45, 60, 57, 55)
(53, 49, 49, 41, 51, 61, 59, 56)
(56, 47, 48, 39, 50, 63, 60, 55)
(57, 51, 48, 39, 54, 60, 60, 53)
(56, 55, 46, 39, 54, 62, 63, 52)
(56, 57, 50, 37, 52, 62, 66, 54)
(54, 56, 52, 36, 51, 59, 66, 60)
(49, 54, 54, 39, 50, 59, 65, 60)
(45, 52, 54, 39, 44, 57, 65, 62)
(48, 50, 55, 38, 48, 61, 65, 61)
(48, 46, 54, 37, 46, 60, 65, 60)
(51, 44, 54, 39, 45, 62, 61, 57)
(53, 46, 53, 36, 45, 61, 64, 57)
(56, 47, 55, 38, 48, 67, 64, 56)
(56, 48, 59, 41, 43, 60, 64, 61)
(52, 49, 55, 44, 49, 66, 63, 63)
(54, 51, 53, 62, 59, 66, 64, 60)
(54, 48, 59, 73, 64, 64, 68, 67)
(57, 46, 76, 96, 72, 61, 75, 79)
(56, 49, 82, 149, 98, 70, 72, 75)
(76, 49, 86, 161, 134, 78, 78, 74)
(116, 48, 89, 156, 137, 80, 80, 74)
(182, 57, 96, 174, 156, 83, 81, 76)
(193, 62, 93, 200, 202, 95, 74, 64)
(223, 58, 84, 205, 192, 93, 77, 66)
(240, 58, 83, 201, 179, 91, 75, 68)
(235, 58, 82, 204, 173, 89, 75, 71)
(286, 54, 70, 199, 158, 95, 66, 59)
(289, 47, 56, 170, 86, 82, 66, 59)
(273, 45, 59, 119, 86, 79, 66, 58)
(258, 48, 57, 111, 61, 69, 63, 58)
(247, 48, 59, 102, 57, 69, 65, 62)
(128, 44, 61, 74, 46, 61, 77, 83)
(104, 50, 70, 57, 45, 65, 89, 93)
(100, 58, 79, 56, 39, 70, 109, 121)
(120, 59, 100, 65, 51, 89, 124, 153)
(146, 62, 108, 70, 50, 97, 137, 164)
(195, 65, 111, 74, 52, 100, 148, 171)
(216, 61, 119, 77, 53, 109, 153, 192)
(240, 61, 122, 78, 58, 114, 153, 185)
(240, 63, 112, 75, 49, 110, 151, 168)
(265, 64, 107, 71, 58, 109, 149, 161)
(238, 109, 108, 75, 56, 111, 138, 151)
(229, 134, 99, 89, 61, 100, 128, 120)
(204, 136, 93, 91, 56, 92, 113, 106)
(193, 134, 86, 86, 55, 80, 101, 89)
(139, 132, 82, 86, 48, 69, 85, 77)
(127, 97, 76, 81, 57, 61, 75, 63)
(104, 56, 67, 61, 52, 57, 66, 51)
(102, 47, 68, 59, 53, 54, 56, 50)
(93, 49, 76, 61, 56, 54, 48, 47)
(84, 54, 73, 61, 54, 53, 42, 48)
(78, 127, 73, 60, 49, 43, 39, 51)
(129, 754, 76, 54, 224, 110, 51, 57)
(234, 1114, 127, 470, 754, 392, 68, 75)
(598, 1236, 182, 662, 932, 572, 102, 121)
(777, 1303, 247, 798, 1219, 844, 212, 362)
(861, 1311, 351, 1084, 1299, 953, 435, 905)
(1002, 1093, 627, 1257, 1560, 1047, 920, 1135)
(1117, 978, 987, 1335, 1630, 1095, 1087, 1365)
(1044, 943, 1103, 1415, 1714, 1101, 1333, 1483)
(1016, 997, 1246, 1373, 1628, 1162, 1384, 1696)
(1169, 1037, 1293, 1218, 1636, 1293, 1468, 1568)
(1169, 1043, 1260, 1172, 1470, 1411, 1377, 1457)
(1273, 900, 1065, 1167, 1300, 1438, 1361, 1291)
(1279, 1083, 1131, 1148, 1227, 1533, 1355, 1212)
(1321, 1133, 1162, 1333, 1304, 1613, 1578, 1133)
(1438, 1409, 1142, 1346, 1354, 1496, 1490, 1025)
pose Pose.UNKNOWN
arm Arm.UNKNOWN xdir XDirection.UNKNOWN
(1464, 1472, 1307, 1352, 1385, 1365, 1389, 1040)
(1477, 1534, 1425, 1341, 1509, 1246, 1285, 1167)
(1595, 1427, 1317, 1259, 1506, 1053, 1044, 1222)
(1612, 1452, 1231, 1267, 1450, 641, 673, 1025)
(1524, 1337, 1186, 1277, 1392, 792, 834, 1018)
(1501, 1538, 930, 1175, 1353, 749, 1161, 937)
(1403, 1542, 673, 1014, 1242, 777, 1289, 696)
(1272, 1526, 629, 969, 1222, 826, 1462, 462)
(1242, 1475, 434, 653, 1163, 847, 1518, 229)
(1094, 1398, 437, 610, 1180, 655, 1469, 183)
(1092, 1209, 400, 684, 1199, 715, 1345, 216)
(1058, 1397, 358, 707, 1290, 963, 1344, 278)
(1383, 1435, 287, 645, 1191, 1091, 1340, 355)
(1382, 1442, 274, 614, 1160, 1086, 1517, 442)
(1563, 1454, 219, 490, 1086, 1064, 1593, 559)
(1506, 1399, 188, 299, 959, 993, 1588, 754)
(1461, 1086, 134, 172, 618, 727, 1664, 999)
(1092, 938, 114, 150, 552, 429, 1539, 1096)
(966, 773, 117, 109, 415, 296, 1269, 1075)
(488, 559, 120, 89, 346, 236, 1098, 1029)
(395, 449, 125, 79, 299, 214, 912, 897)
(285, 399, 131, 84, 267, 190, 507, 588)
(258, 406, 145, 93, 258, 137, 415, 306)
(245, 374, 151, 112, 247, 128, 270, 256)
(241, 379, 164, 132, 248, 147, 184, 216)
(231, 341, 171, 148, 247, 169, 146, 170)
(215, 327, 173, 151, 235, 166, 148, 143)
(197, 273, 164, 146, 211, 156, 151, 126)
(167, 242, 158, 134, 183, 137, 157, 113)
(140, 185, 140, 117, 138, 110, 157, 98)
(112, 171, 115, 88, 98, 56, 167, 78)
(99, 175, 94, 71, 67, 53, 202, 62)
(108, 217, 93, 64, 59, 53, 247, 56)
(121, 239, 89, 58, 60, 57, 290, 61)
(129, 264, 94, 56, 81, 64, 334, 68)
(128, 295, 115, 75, 116, 68, 392, 68)
(241, 346, 216, 157, 252, 198, 670, 92)
(336, 430, 340, 295, 413, 264, 742, 221)
(389, 490, 431, 332, 465, 286, 775, 269)
(459, 518, 505, 429, 521, 328, 798, 306)
(499, 505, 601, 478, 553, 352, 794, 328)
(473, 475, 632, 469, 531, 317, 600, 332)
(421, 399, 608, 419, 434, 279, 519, 282)
(394, 321, 576, 407, 389, 262, 452, 255)
(358, 279, 532, 329, 317, 210, 398, 229)
(335, 275, 451, 278, 295, 195, 360, 209)
(325, 261, 371, 295, 277, 191, 325, 201)
(318, 239, 328, 302, 283, 195, 277, 193)
(299, 229, 286, 304, 290, 213, 254, 180)
(243, 193, 253, 293, 296, 219, 205, 158)
(194, 168, 195, 279, 252, 199, 164, 145)
(165, 157, 186, 246, 225, 178, 112, 140)
(141, 143, 159, 195, 185, 150, 82, 116)
(125, 128, 134, 163, 155, 117, 71, 97)
(120, 136, 120, 143, 139, 109, 62, 91)
(118, 137, 108, 124, 140, 115, 56, 83)
(112, 134, 106, 112, 134, 119, 49, 80)
(118, 136, 105, 117, 135, 126, 47, 79)
(105, 136, 101, 110, 138, 125, 86, 78)
(104, 122, 97, 98, 119, 109, 296, 83)
(101, 111, 105, 120, 140, 115, 370, 88)
(110, 107, 104, 166, 181, 133, 415, 93)
(139, 113, 114, 196, 220, 149, 442, 105)
(163, 109, 122, 207, 237, 151, 452, 110)
(195, 125, 156, 225, 263, 170, 360, 130)
(284, 196, 209, 250, 294, 182, 497, 149)
(412, 607, 295, 279, 314, 192, 864, 173)
(428, 706, 325, 289, 300, 202, 1154, 195)
(446, 1019, 390, 347, 305, 231, 1454, 218)
(455, 1194, 532, 371, 302, 244, 1511, 217)
(437, 1296, 654, 385, 267, 230, 1615, 221)
(346, 1270, 704, 365, 219, 215, 1607, 219)
(323, 1230, 694, 354, 205, 201, 1568, 200)
(303, 1005, 673, 300, 178, 165, 1390, 182)
(284, 796, 585, 266, 157, 140, 1407, 177)
(250, 613, 448, 232, 175, 157, 1285, 161)
(212, 378, 322, 211, 172, 195, 1121, 144)
(201, 336, 339, 194, 171, 212, 890, 148)
(181, 285, 314, 194, 191, 221, 779, 139)
(162, 258, 280, 190, 188, 216, 695, 133)
(137, 228, 243, 178, 163, 205, 632, 132)
(173, 153, 216, 175, 166, 161, 566, 139)
(195, 160, 174, 178, 169, 126, 561, 140)
(197, 159, 175, 177, 147, 118, 484, 150)
(206, 161, 146, 171, 135, 109, 378, 159)
(212, 168, 135, 157, 136, 108, 384, 160)
(185, 186, 128, 153, 132, 106, 415, 151)
(161, 189, 120, 147, 142, 107, 444, 140)
(153, 186, 108, 138, 156, 99, 465, 126)
(138, 186, 105, 146, 184, 100, 472, 112)
(124, 173, 96, 148, 205, 104, 380, 112)
(117, 153, 88, 164, 236, 115, 292, 118)
(121, 128, 90, 177, 253, 127, 220, 138)
(149, 117, 95, 179, 260, 138, 272, 168)
(149, 111, 136, 178, 250, 199, 362, 178)
(175, 106, 181, 173, 284, 213, 420, 191)
(235, 158, 380, 233, 302, 229, 812, 212)
(270, 234, 430, 311, 344, 246, 894, 219)
(266, 241, 444, 689, 869, 239, 977, 209)
(266, 249, 452, 1050, 1153, 199, 1339, 205)
(251, 254, 439, 1139, 1202, 183, 1586, 194)
(204, 236, 295, 1167, 1322, 154, 1493, 161)
(237, 185, 228, 1155, 1317, 139, 1504, 170)
(333, 210, 205, 979, 1052, 172, 1447, 221)
(403, 213, 179, 572, 736, 214, 1103, 316)
(455, 214, 191, 360, 674, 285, 722, 441)
(480, 203, 252, 319, 404, 388, 655, 544)
(459, 185, 300, 650, 472, 461, 593, 603)
(395, 141, 351, 825, 546, 544, 625, 623)
(327, 110, 366, 956, 633, 594, 640, 599)
(254, 88, 366, 1025, 652, 613, 598, 523)
(196, 71, 335, 1021, 665, 590, 514, 423)
(157, 60, 293, 1117, 762, 550, 414, 322)
(136, 62, 231, 1140, 760, 466, 319, 238)
(127, 79, 206, 1154, 723, 386, 237, 186)
(121, 97, 199, 1131, 699, 307, 181, 157)
(129, 140, 200, 1141, 749, 241, 170, 147)
(141, 172, 202, 957, 701, 197, 162, 142)
(150, 193, 223, 842, 686, 182, 159, 139)
(168, 222, 228, 722, 677, 169, 174, 151)
(188, 256, 242, 707, 657, 157, 187, 164)
(194, 264, 241, 668, 564, 149, 178, 173)
(192, 263, 253, 571, 423, 139, 177, 175)
(186, 294, 260, 514, 349, 129, 171, 174)
(180, 306, 268, 472, 285, 134, 144, 162)
(179, 295, 265, 515, 292, 225, 154, 184)
(164, 282, 285, 1045, 292, 310, 253, 249)
(248, 280, 307, 1337, 380, 355, 302, 324)
(343, 317, 355, 1477, 418, 397, 338, 372)
(366, 296, 385, 1671, 463, 413, 351, 387)
(386, 342, 400, 1731, 469, 389, 356, 387)
(430, 388, 390, 1494, 484, 358, 323, 385)
(422, 412, 386, 1233, 432, 345, 316, 355)
(393, 386, 349, 1041, 408, 342, 327, 354)
(441, 458, 344, 672, 379, 392, 385, 395)
(485, 475, 348, 392, 381, 419, 428, 447)
(514, 488, 356, 270, 375, 430, 436, 449)
(494, 478, 341, 250, 351, 420, 419, 429)
(467, 464, 320, 257, 329, 400, 390, 400)
(400, 385, 273, 265, 304, 337, 329, 355)
(315, 310, 244, 285, 274, 303, 253, 269)
(192, 220, 241, 310, 289, 278, 209, 210)
(176, 200, 260, 339, 311, 294, 197, 198)
(171, 203, 293, 364, 337, 304, 197, 197)
(177, 218, 325, 385, 360, 328, 193, 186)
(175, 221, 335, 383, 375, 324, 200, 188)
(172, 226, 326, 361, 350, 314, 192, 180)
(166, 218, 311, 331, 336, 293, 190, 178)
(155, 195, 283, 294, 313, 278, 190, 164)
(151, 179, 246, 244, 281, 251, 198, 162)
(162, 182, 215, 210, 249, 231, 196, 163)
(177, 175, 186, 191, 225, 201, 198, 171)
(182, 176, 156, 179, 194, 184, 197, 182)
(189, 185, 130, 166, 167, 157, 187, 178)
(187, 177, 110, 163, 146, 135, 168, 166)
(175, 161, 103, 155, 129, 121, 152, 151)
(158, 149, 99, 136, 123, 118, 136, 138)
(139, 132, 90, 118, 113, 106, 117, 121)
(122, 101, 83, 102, 105, 99, 108, 113)
(115, 104, 83, 97, 103, 89, 101, 116)
(110, 108, 80, 101, 95, 98, 103, 117)
(109, 113, 76, 109, 96, 96, 100, 122)
(117, 121, 81, 120, 98, 97, 101, 127)
(119, 126, 79, 122, 97, 90, 100, 127)
(122, 136, 79, 124, 90, 88, 100, 127)
(124, 144, 77, 116, 87, 76, 97, 130)
(121, 143, 78, 108, 86, 73, 101, 126)
(119, 142, 85, 98, 89, 81, 120, 122)
(118, 148, 99, 93, 99, 94, 134, 123)
(117, 137, 108, 84, 108, 100, 138, 120)
(113, 129, 124, 90, 134, 113, 148, 129)
(118, 135, 142, 100, 140, 123, 159, 135)
(139, 161, 156, 105, 137, 117, 155, 149)
(168, 195, 172, 119, 134, 112, 155, 164)
(189, 225, 182, 132, 130, 105, 161, 179)
(208, 240, 185, 137, 109, 96, 161, 176)
(216, 246, 179, 145, 104, 85, 162, 173)
(205, 230, 168, 148, 105, 94, 162, 162)
(182, 196, 147, 137, 105, 93, 159, 142)
(156, 158, 130, 124, 104, 101, 155, 122)
(130, 131, 116, 114, 103, 106, 154, 116)
(111, 103, 108, 99, 107, 111, 153, 115)
(99, 87, 112, 99, 109, 114, 161, 117)
(97, 79, 124, 113, 111, 126, 168, 143)
(103, 80, 140, 136, 121, 131, 183, 162)
(111, 94, 158, 153, 136, 133, 193, 175)
(128, 125, 179, 169, 139, 137, 199, 194)
(149, 151, 191, 176, 144, 138, 200, 213)
(173, 174, 200, 177, 150, 131, 206, 217)
(183, 189, 198, 172, 152, 132, 202, 219)
(186, 205, 193, 163, 147, 133, 195, 219)
(186, 200, 177, 146, 137, 125, 187, 205)
(179, 192, 155, 133, 127, 120, 178, 191)
(157, 180, 131, 118, 113, 116, 160, 173)
(144, 165, 117, 101, 99, 104, 145, 157)
(139, 142, 96, 87, 81, 92, 128, 141)
(133, 139, 81, 84, 77, 86, 114, 134)
(136, 141, 80, 82, 72, 81, 101, 128)
(150, 146, 75, 86, 71, 77, 98, 129)
(164, 162, 73, 95, 72, 78, 96, 138)
(172, 164, 74, 103, 73, 74, 104, 139)
(171, 154, 78, 104, 74, 72, 104, 136)
(161, 143, 76, 106, 72, 68, 104, 125)
(147, 135, 73, 103, 75, 65, 95, 120)
(128, 117, 67, 93, 71, 61, 88, 106)
(113, 110, 60, 84, 66, 58, 76, 98)
(103, 111, 55, 77, 66, 60, 70, 96)
(101, 116, 56, 78, 66, 63, 63, 99)
(104, 116, 60, 77, 60, 58, 65, 96)
(106, 114, 58, 81, 65, 59, 66, 96)
(113, 114, 60, 83, 66, 61, 66, 106)
(120, 116, 67, 92, 71, 58, 67, 105)
(127, 119, 65, 83, 69, 58, 73, 102)
(134, 121, 69, 81, 66, 59, 75, 106)
(134, 123, 69, 81, 63, 63, 77, 105)
(126, 125, 70, 84, 60, 63, 79, 101)
(123, 118, 62, 74, 58, 63, 76, 101)
(116, 111, 61, 73, 61, 61, 74, 100)
(105, 101, 59, 72, 61, 59, 72, 102)
(103, 112, 58, 64, 59, 56, 74, 101)
(114, 120, 67, 73, 64, 65, 71, 103)
(132, 137, 72, 77, 62, 67, 79, 107)
(151, 149, 78, 88, 66, 68, 82, 115)
(159, 160, 82, 92, 69, 67, 86, 111)
(164, 156, 82, 96, 76, 66, 87, 120)
(160, 146, 75, 94, 71, 56, 89, 119)
(143, 132, 78, 95, 72, 55, 84, 120)
(127, 118, 71, 87, 72, 56, 79, 111)
(117, 105, 65, 83, 76, 60, 75, 110)
(112, 104, 66, 77, 66, 59, 66, 95)
(107, 114, 66, 63, 65, 59, 61, 91)
(114, 116, 58, 63, 69, 61, 60, 86)
(116, 123, 58, 61, 62, 55, 58, 87)
(118, 128, 56, 67, 58, 56, 59, 96)
(123, 127, 54, 77, 62, 56, 61, 103)
(124, 128, 54, 82, 60, 57, 66, 102)
(127, 135, 56, 81, 59, 52, 65, 100)
(130, 135, 59, 80, 66, 51, 68, 104)
(129, 133, 62, 77, 63, 47, 66, 92)
(126, 134, 66, 70, 61, 49, 69, 90)
(127, 133, 69, 76, 61, 54, 66, 96)
(120, 130, 67, 72, 54, 60, 73, 95)
(114, 131, 67, 72, 51, 62, 74, 97)
(124, 136, 69, 75, 58, 65, 77, 106)
(135, 144, 74, 80, 58, 62, 79, 115)
(149, 151, 85, 78, 60, 55, 78, 116)
(165, 156, 89, 91, 69, 59, 86, 120)
(171, 156, 91, 102, 87, 66, 92, 122)
(165, 153, 92, 103, 89, 71, 98, 124)
(155, 138, 87, 99, 95, 75, 97, 117)
(138, 125, 73, 98, 96, 78, 101, 112)
(115, 110, 66, 87, 93, 74, 91, 105)
(106, 99, 61, 76, 77, 66, 85, 96)
(101, 97, 55, 69, 72, 56, 73, 87)
(98, 98, 51, 69, 62, 52, 70, 78)
(105, 97, 50, 69, 58, 50, 67, 74)
(110, 108, 57, 68, 54, 44, 68, 76)
(113, 114, 58, 74, 50, 46, 65, 87)
(121, 115, 60, 80, 45, 47, 68, 85)
(122, 121, 62, 79, 44, 47, 64, 93)
(127, 125, 68, 79, 45, 46, 63, 96)
(128, 126, 65, 83, 50, 57, 70, 101)
(122, 126, 67, 80, 52, 58, 69, 93)
(117, 128, 65, 75, 53, 63, 74, 103)
(114, 127, 63, 73, 56, 66, 75, 101)
(106, 123, 56, 65, 54, 66, 81, 103)
(109, 119, 56, 63, 59, 59, 80, 106)
(124, 131, 61, 65, 67, 62, 83, 119)
(137, 138, 69, 70, 69, 60, 79, 117)
(153, 149, 75, 84, 70, 55, 91, 119)
(160, 155, 81, 95, 74, 60, 88, 123)
(157, 153, 83, 98, 70, 61, 90, 120)
(149, 141, 80, 100, 63, 56, 92, 113)
(135, 125, 72, 96, 63, 64, 94, 112)
(116, 106, 67, 87, 61, 66, 83, 110)
(100, 93, 59, 76, 62, 68, 79, 103)
(96, 94, 55, 74, 60, 68, 70, 93)
(92, 100, 47, 68, 62, 70, 61, 83)
(93, 102, 47, 68, 60, 61, 59, 74)
(97, 105, 57, 70, 57, 60, 61, 73)
(100, 114, 65, 73, 49, 57, 60, 69)
(103, 116, 65, 73, 49, 53, 58, 77)
(102, 112, 67, 70, 46, 48, 63, 87)
(110, 115, 69, 78, 51, 49, 63, 94)
(109, 114, 63, 72, 52, 51, 62, 94)
(111, 109, 55, 70, 57, 52, 70, 95)
(110, 110, 58, 70, 58, 54, 76, 93)
(117, 118, 57, 74, 57, 58, 74, 87)
(110, 136, 57, 68, 55, 58, 69, 85)
(122, 152, 58, 75, 56, 59, 77, 93)
(134, 161, 69, 77, 55, 58, 71, 102)
(150, 178, 74, 77, 58, 59, 76, 116)
(164, 183, 78, 82, 64, 62, 90, 126)
(176, 180, 85, 88, 70, 67, 107, 138)
(177, 176, 87, 86, 71, 70, 108, 141)
(168, 169, 86, 90, 77, 77, 111, 137)
(154, 145, 82, 88, 73, 75, 109, 131)
(133, 131, 76, 86, 75, 75, 100, 120)
(117, 115, 67, 82, 67, 73, 85, 107)
(104, 106, 62, 77, 65, 72, 80, 93)
(100, 101, 53, 71, 57, 67, 73, 91)
(104, 104, 52, 76, 57, 67, 67, 81)
(106, 104, 55, 74, 48, 60, 63, 82)
(107, 113, 59, 78, 51, 56, 63, 79)
(112, 114, 62, 81, 53, 52, 61, 86)
(118, 120, 60, 80, 52, 47, 60, 83)
(116, 123, 62, 79, 55, 47, 56, 85)
(122, 131, 66, 78, 53, 54, 61, 89)
(132, 132, 64, 74, 51, 53, 64, 92)
(132, 139, 67, 74, 52, 53, 65, 90)
(134, 141, 68, 76, 53, 60, 67, 96)
(134, 141, 67, 74, 60, 65, 74, 99)
(132, 140, 68, 72, 59, 58, 75, 105)
(129, 137, 68, 69, 60, 63, 82, 112)
(134, 138, 64, 72, 60, 63, 87, 117)
(147, 151, 69, 84, 60, 59, 89, 126)
(162, 159, 74, 94, 55, 57, 89, 132)
(171, 160, 74, 95, 56, 60, 88, 133)
(171, 159, 81, 99, 59, 59, 86, 131)
(165, 152, 82, 101, 62, 64, 85, 129)
(146, 130, 78, 92, 61, 66, 90, 118)
(124, 114, 72, 81, 58, 65, 86, 110)
(109, 104, 72, 75, 62, 66, 84, 101)
(98, 100, 60, 71, 61, 62, 76, 87)
(96, 95, 63, 67, 59, 56, 70, 79)
(97, 97, 62, 66, 61, 53, 62, 79)
(103, 116, 64, 73, 67, 52, 65, 77)
(108, 121, 62, 76, 63, 47, 67, 80)
(114, 123, 65, 78, 67, 53, 69, 90)
(121, 131, 61, 78, 62, 54, 68, 95)
(125, 140, 65, 79, 62, 55, 73, 104)
(127, 133, 65, 77, 60, 56, 74, 102)
(130, 143, 69, 79, 62, 57, 80, 105)
(128, 142, 67, 78, 53, 56, 82, 104)
(121, 137, 67, 79, 61, 60, 86, 104)
(119, 133, 67, 77, 63, 61, 89, 104)
(122, 130, 64, 74, 61, 63, 83, 110)
(120, 116, 62, 72, 66, 64, 79, 112)
(136, 129, 70, 77, 70, 63, 79, 120)
(157, 150, 79, 88, 65, 63, 81, 124)
(173, 157, 85, 92, 62, 61, 77, 126)
(175, 158, 91, 104, 70, 72, 86, 131)
(175, 159, 93, 107, 67, 71, 83, 130)
(159, 143, 90, 103, 67, 70, 83, 121)
(135, 120, 79, 90, 66, 74, 80, 118)
(113, 103, 71, 83, 68, 74, 81, 107)
(101, 97, 62, 70, 60, 59, 75, 96)
(93, 98, 51, 68, 57, 62, 76, 88)
(96, 104, 50, 67, 55, 60, 76, 90)
(101, 106, 54, 72, 57, 50, 71, 83)
(108, 113, 56, 76, 57, 51, 67, 87)
(111, 118, 62, 82, 62, 50, 65, 87)
(118, 122, 68, 82, 63, 43, 66, 94)
(126, 125, 69, 79, 65, 46, 67, 94)
(136, 130, 71, 78, 64, 44, 70, 95)
(137, 136, 71, 79, 64, 45, 75, 97)
(137, 136, 71, 72, 63, 51, 74, 98)
(133, 134, 72, 77, 59, 58, 74, 94)
(127, 134, 71, 77, 57, 56, 71, 90)
(114, 129, 70, 73, 65, 61, 68, 89)
(108, 125, 71, 66, 64, 62, 68, 89)
(118, 132, 67, 65, 64, 59, 71, 92)
(139, 145, 68, 67, 66, 52, 69, 104)
(159, 154, 75, 78, 69, 54, 74, 125)
(174, 166, 82, 86, 60, 50, 78, 130)
(182, 166, 85, 93, 61, 52, 79, 135)
(176, 160, 90, 101, 56, 57, 83, 137)
(158, 142, 86, 94, 58, 63, 82, 129)
(137, 130, 80, 87, 56, 65, 79, 109)
(117, 110, 69, 79, 57, 64, 75, 104)
(103, 100, 64, 72, 56, 63, 69, 96)
(97, 91, 56, 57, 54, 62, 62, 90)
(100, 97, 55, 62, 54, 56, 66, 88)
(102, 94, 58, 71, 57, 59, 66, 92)
(109, 103, 59, 78, 68, 64, 73, 93)
(118, 113, 60, 80, 70, 62, 79, 93)
(124, 122, 63, 85, 73, 58, 80, 93)
(128, 128, 66, 82, 75, 63, 80, 92)
(133, 135, 65, 75, 73, 56, 79, 93)
(131, 134, 64, 69, 64, 50, 73, 94)
(125, 128, 62, 70, 63, 51, 73, 93)
(118, 128, 61, 64, 57, 53, 72, 95)
(116, 119, 61, 62, 62, 48, 68, 97)
(109, 117, 57, 57, 60, 49, 66, 94)
(106, 115, 60, 55, 57, 49, 67, 94)
(113, 124, 65, 57, 62, 47, 63, 99)
(127, 133, 66, 67, 65, 44, 70, 103)
(141, 152, 75, 82, 66, 49, 76, 115)
(156, 159, 80, 94, 70, 56, 86, 122)
(165, 164, 88, 106, 74, 59, 88, 126)
(162, 160, 88, 105, 72, 59, 95, 125)
(155, 149, 86, 99, 70, 62, 97, 123)
(137, 130, 75, 88, 67, 59, 98, 110)
(119, 111, 69, 75, 63, 56, 95, 106)
(105, 100, 61, 55, 60, 55, 93, 101)
(104, 98, 58, 52, 54, 57, 86, 92)
(106, 95, 61, 57, 56, 58, 78, 96)
(121, 107, 65, 67, 56, 63, 81, 100)
(124, 120, 70, 80, 57, 58, 78, 102)
(131, 129, 67, 88, 60, 59, 85, 105)
(136, 135, 72, 88, 64, 55, 86, 107)
(136, 142, 71, 88, 61, 53, 85, 100)
(129, 139, 71, 83, 60, 47, 79, 93)
(133, 139, 68, 72, 54, 51, 79, 88)
(129, 134, 70, 66, 54, 55, 74, 86)
(117, 124, 66, 68, 57, 57, 72, 86)
(116, 121, 68, 62, 63, 58, 72, 97)
(109, 116, 65, 58, 62, 56, 74, 103)
(104, 115, 63, 57, 64, 60, 72, 104)
(107, 121, 61, 56, 60, 58, 71, 115)
(119, 129, 62, 53, 57, 56, 72, 119)
(138, 147, 64, 66, 58, 56, 79, 118)
(155, 162, 76, 85, 63, 58, 83, 122)
(167, 161, 83, 91, 66, 55, 87, 128)
(169, 160, 87, 100, 70, 58, 90, 126)
(164, 155, 85, 100, 69, 60, 91, 126)
(145, 131, 84, 94, 72, 62, 85, 120)
(129, 111, 75, 79, 68, 59, 78, 111)
(108, 104, 68, 73, 69, 57, 76, 99)
(98, 97, 64, 66, 67, 54, 71, 83)
(99, 99, 63, 67, 67, 53, 70, 75)
(105, 108, 62, 73, 59, 47, 66, 70)
(111, 111, 60, 76, 59, 51, 67, 73)
(120, 117, 60, 82, 61, 50, 67, 79)
(130, 121, 60, 82, 64, 52, 65, 89)
(135, 130, 61, 84, 64, 51, 67, 96)
(135, 132, 62, 82, 63, 55, 73, 101)
(131, 134, 66, 81, 64, 54, 79, 101)
(129, 136, 67, 80, 60, 55, 80, 105)
(120, 137, 70, 71, 56, 60, 78, 99)
(115, 127, 70, 72, 55, 67, 83, 96)
(111, 121, 65, 65, 64, 68, 86, 99)
(109, 113, 60, 64, 69, 68, 83, 103)
(110, 102, 59, 58, 75, 71, 85, 107)
(121, 104, 59, 65, 78, 70, 94, 116)
(134, 114, 61, 62, 77, 62, 91, 124)
(148, 129, 70, 72, 71, 60, 92, 125)
(159, 140, 75, 79, 66, 64, 95, 130)
(165, 147, 75, 89, 60, 64, 94, 127)
(164, 143, 76, 93, 60, 63, 91, 121)
(152, 131, 76, 94, 59, 68, 90, 114)
(139, 120, 69, 93, 63, 66, 85, 107)
(124, 109, 63, 88, 61, 61, 84, 98)
(116, 109, 64, 83, 60, 56, 78, 91)
(116, 107, 60, 75, 56, 57, 75, 97)
(123, 121, 59, 74, 57, 51, 69, 95)
(124, 130, 63, 70, 57, 58, 64, 93)
(129, 135, 66, 67, 57, 61, 58, 92)
(132, 143, 63, 69, 57, 62, 58, 93)
(135, 163, 66, 71, 61, 59, 60, 87)
(127, 158, 66, 70, 61, 61, 60, 92)
(127, 155, 65, 74, 65, 59, 65, 98)
(127, 154, 65, 75, 65, 57, 67, 98)
(118, 151, 70, 70, 67, 59, 74, 96)
(104, 132, 66, 67, 70, 68, 75, 88)
(105, 126, 61, 62, 68, 71, 77, 89)
(100, 125, 61, 53, 60, 67, 77, 80)
(103, 123, 60, 50, 62, 68, 71, 81)
(111, 119, 62, 54, 62, 65, 68, 98)
(128, 136, 65, 57, 56, 54, 64, 105)
(150, 159, 78, 63, 61, 46, 66, 111)
(164, 163, 82, 72, 62, 50, 72, 118)
(169, 165, 87, 81, 63, 49, 77, 122)
(167, 169, 85, 83, 64, 52, 80, 113)
(157, 160, 85, 84, 61, 52, 81, 114)
(133, 142, 76, 82, 70, 60, 77, 108)
(115, 133, 69, 78, 70, 61, 68, 104)
(98, 128, 65, 77, 99, 75, 83, 100)
(94, 115, 63, 76, 102, 80, 87, 99)
(93, 106, 63, 81, 110, 90, 90, 99)
(101, 106, 64, 87, 108, 92, 92, 98)
(113, 100, 63, 90, 107, 97, 95, 98)
(118, 112, 59, 82, 83, 86, 82, 96)
(128, 121, 68, 78, 77, 82, 75, 98)
(137, 133, 70, 72, 66, 74, 68, 96)
(134, 135, 71, 68, 61, 72, 66, 94)
(133, 145, 72, 62, 64, 63, 67, 101)
(134, 142, 78, 66, 66, 66, 69, 105)
(123, 141, 69, 65, 66, 68, 64, 100)
(114, 129, 63, 60, 69, 66, 67, 102)
(113, 127, 62, 50, 68, 57, 66, 100)
(104, 122, 64, 51, 67, 58, 64, 95)
(111, 126, 58, 44, 63, 56, 56, 92)
(125, 140, 61, 42, 71, 57, 56, 100)
(143, 156, 69, 42, 78, 59, 56, 96)
(162, 164, 77, 44, 88, 63, 53, 105)
(172, 165, 84, 46, 89, 62, 49, 108)
(168, 157, 92, 44, 88, 59, 52, 109)
(157, 140, 90, 47, 81, 59, 56, 104)
(139, 119, 86, 51, 75, 56, 59, 106)
(116, 107, 79, 51, 60, 57, 59, 100)
(103, 96, 71, 48, 60, 57, 60, 93)
(103, 93, 57, 47, 68, 59, 60, 88)
(104, 93, 60, 52, 70, 60, 58, 81)
(106, 104, 61, 53, 69, 63, 53, 76)
(107, 117, 59, 54, 74, 62, 55, 76)
(106, 123, 63, 55, 76, 61, 56, 75)
(107, 134, 68, 58, 69, 59, 53, 75)
(114, 141, 74, 55, 71, 59, 54, 78)
(119, 140, 75, 55, 71, 57, 52, 78)
(119, 142, 77, 57, 68, 61, 55, 79)
(124, 146, 76, 56, 66, 60, 59, 82)
(123, 142, 76, 55, 65, 60, 58, 87)
(121, 139, 65, 59, 63, 59, 57, 86)
(114, 137, 63, 55, 59, 56, 57, 90)
(114, 122, 58, 52, 57, 48, 56, 92)
(115, 126, 54, 51, 62, 52, 50, 94)
(126, 146, 54, 52, 64, 57, 52, 97)
(137, 156, 71, 50, 81, 61, 50, 104)
(157, 165, 76, 56, 83, 63, 57, 106)
(170, 172, 81, 56, 93, 66, 56, 109)
(169, 167, 84, 56, 92, 62, 59, 107)
(159, 147, 88, 55, 91, 57, 63, 103)
(148, 129, 78, 53, 74, 49, 64, 99)
(126, 115, 74, 45, 74, 46, 60, 90)
(105, 100, 68, 45, 61, 49, 63, 84)
(99, 96, 63, 45, 55, 47, 62, 78)
(105, 95, 53, 46, 59, 50, 56, 72)
(102, 99, 56, 46, 64, 51, 54, 68)
(105, 104, 57, 50, 73, 57, 56, 70)
(108, 113, 66, 48, 80, 58, 52, 63)
(108, 122, 71, 51, 84, 60, 46, 69)
(107, 126, 72, 54, 82, 58, 49, 73)
(117, 136, 75, 56, 81, 58, 53, 75)
(128, 140, 71, 55, 74, 53, 51, 78)
(131, 143, 68, 56, 68, 47, 53, 82)
(132, 140, 66, 59, 70, 47, 58, 81)
(128, 141, 67, 55, 74, 55, 58, 86)
(119, 131, 62, 50, 74, 52, 53, 86)
(105, 124, 67, 48, 74, 52, 53, 86)
(102, 120, 66, 50, 78, 54, 55, 95)
(106, 124, 63, 44, 71, 54, 52, 98)
(119, 136, 65, 45, 66, 52, 50, 100)
(141, 151, 70, 48, 65, 57, 52, 104)
(163, 160, 72, 49, 77, 56, 53, 105)
(170, 162, 76, 48, 80, 54, 55, 105)
(173, 158, 82, 53, 86, 55, 56, 109)
(164, 141, 83, 54, 85, 55, 62, 104)
(145, 119, 76, 51, 84, 54, 64, 100)
(127, 104, 68, 52, 72, 56, 67, 97)
(114, 92, 64, 50, 67, 60, 63, 88)
(102, 86, 61, 45, 64, 58, 63, 80)
(97, 87, 62, 45, 66, 59, 59, 81)
(96, 94, 64, 44, 71, 59, 56, 77)
(96, 97, 70, 47, 68, 60, 53, 82)
(103, 111, 71, 49, 69, 58, 53, 82)
(109, 121, 71, 53, 68, 61, 50, 78)
(119, 135, 67, 52, 69, 58, 52, 82)
(129, 145, 71, 54, 68, 57, 53, 90)
(132, 153, 70, 53, 73, 55, 50, 88)
(134, 153, 70, 55, 75, 58, 53, 89)
(133, 154, 75, 54, 74, 60, 55, 90)
(133, 143, 76, 54, 73, 59, 56, 87)
(129, 137, 71, 55, 74, 59, 54, 82)
(124, 132, 69, 54, 72, 61, 57, 84)
(124, 136, 67, 50, 70, 55, 55, 91)
(140, 148, 70, 55, 72, 56, 54, 98)
(150, 164, 80, 55, 78, 58, 52, 105)
(164, 170, 85, 56, 77, 54, 56, 108)
(175, 169, 90, 58, 78, 52, 58, 112)
(171, 159, 89, 58, 75, 51, 58, 111)
(156, 139, 80, 48, 75, 48, 61, 105)
(140, 117, 71, 48, 71, 42, 58, 98)
(118, 101, 65, 45, 68, 47, 56, 95)
(96, 96, 59, 44, 69, 44, 52, 84)
(95, 98, 61, 46, 79, 54, 53, 75)
(93, 98, 65, 47, 82, 55, 50, 69)
(90, 104, 69, 49, 86, 65, 52, 65)
(93, 103, 69, 50, 89, 69, 49, 63)
(103, 109, 68, 51, 92, 71, 50, 68)
(103, 115, 67, 54, 83, 64, 48, 75)
(108, 125, 67, 58, 87, 66, 53, 80)
(119, 129, 63, 58, 82, 58, 50, 86)
(126, 140, 64, 56, 83, 51, 54, 88)
(126, 145, 67, 56, 77, 52, 52, 95)
(127, 145, 68, 58, 83, 55, 52, 93)
(125, 140, 65, 54, 75, 50, 47, 95)
(116, 134, 63, 54, 75, 50, 61, 96)
(110, 124, 59, 56, 79, 58, 57, 94)
(103, 121, 53, 53, 83, 56, 58, 89)
(114, 130, 66, 50, 79, 57, 60, 91)
(131, 143, 71, 55, 80, 62, 62, 98)
(150, 155, 83, 54, 83, 65, 49, 98)
(165, 162, 87, 56, 82, 61, 52, 105)
(174, 159, 93, 61, 84, 64, 61, 109)
(168, 145, 85, 61, 84, 69, 62, 108)
(155, 129, 83, 58, 89, 68, 63, 101)
(137, 111, 69, 59, 88, 66, 67, 95)
(116, 95, 65, 56, 82, 66, 67, 91)
(101, 91, 56, 50, 78, 64, 65, 82)
(101, 97, 55, 48, 80, 53, 61, 80)
(106, 104, 53, 45, 74, 52, 58, 80)
(110, 111, 59, 44, 72, 53, 54, 81)
(113, 123, 62, 50, 73, 53, 51, 78)
(130, 140, 68, 50, 69, 53, 46, 87)
(136, 146, 72, 53, 69, 56, 45, 88)
(144, 154, 79, 56, 71, 59, 46, 89)
(148, 156, 77, 54, 73, 56, 45, 92)
(151, 155, 77, 52, 69, 61, 47, 97)
(142, 143, 75, 54, 77, 60, 45, 90)
(132, 138, 70, 53, 78, 63, 53, 87)
(119, 133, 59, 55, 76, 58, 59, 84)
(112, 127, 59, 59, 72, 56, 61, 84)
(113, 133, 58, 54, 77, 50, 60, 77)
(122, 145, 61, 56, 72, 60, 64, 80)
(134, 152, 69, 59, 81, 56, 62, 88)
(152, 157, 74, 53, 83, 55, 54, 97)
(162, 167, 76, 55, 86, 62, 59, 96)
(165, 167, 79, 61, 87, 59, 59, 104)
(158, 153, 77, 60, 89, 48, 57, 106)
(149, 142, 72, 55, 79, 50, 54, 101)
(128, 126, 66, 56, 74, 50, 57, 94)
(116, 110, 59, 55, 72, 46, 49, 93)
(105, 91, 52, 52, 65, 49, 48, 85)
(101, 89, 49, 52, 59, 48, 50, 77)
(103, 93, 49, 54, 63, 46, 53, 74)
(108, 98, 55, 56, 64, 47, 52, 71)
(105, 103, 62, 52, 67, 51, 53, 68)
(106, 116, 62, 53, 71, 54, 52, 70)
(111, 123, 63, 52, 71, 62, 46, 70)
(119, 121, 61, 49, 70, 62, 46, 80)
(130, 132, 62, 46, 75, 64, 45, 81)
(142, 143, 64, 45, 74, 65, 51, 94)
(144, 147, 70, 43, 77, 67, 54, 98)
(145, 152, 68, 45, 87, 62, 59, 108)
(140, 157, 72, 46, 85, 61, 59, 104)
(130, 153, 70, 50, 83, 57, 59, 107)
(128, 152, 71, 51, 85, 61, 54, 98)
(135, 146, 66, 52, 81, 55, 53, 100)
(139, 152, 71, 49, 71, 57, 51, 98)
(158, 161, 78, 50, 76, 63, 50, 102)
(168, 168, 82, 52, 76, 67, 53, 101)
(170, 164, 80, 54, 71, 57, 55, 111)
(166, 164, 86, 54, 76, 60, 59, 107)
(162, 152, 90, 58, 76, 56, 61, 99)
(140, 133, 82, 59, 75, 54, 63, 100)
(129, 116, 73, 55, 79, 51, 61, 97)
(119, 108, 70, 54, 78, 54, 67, 85)
(110, 98, 65, 53, 77, 52, 64, 83)
(103, 90, 58, 52, 85, 54, 61, 82)
(102, 98, 57, 51, 86, 53, 58, 74)
(98, 100, 63, 49, 81, 56, 61, 76)
(95, 98, 63, 53, 82, 54, 52, 71)
(97, 105, 60, 55, 90, 58, 47, 67)
(101, 116, 63, 54, 80, 58, 52, 69)
(109, 122, 65, 57, 75, 56, 56, 74)
(117, 131, 62, 61, 75, 54, 52, 76)
(128, 145, 66, 59, 76, 54, 54, 86)
(130, 146, 67, 56, 64, 48, 57, 90)
(133, 143, 65, 56, 70, 47, 54, 97)
(126, 137, 61, 54, 72, 49, 50, 98)
(121, 132, 64, 53, 75, 50, 53, 96)
(114, 124, 60, 53, 75, 55, 56, 89)
(112, 131, 62, 54, 68, 62, 59, 95)
(125, 141, 63, 50, 70, 64, 59, 95)
(145, 149, 71, 50, 73, 68, 62, 98)
(158, 161, 75, 54, 73, 65, 63, 105)
(170, 160, 80, 55, 74, 63, 66, 114)
(175, 152, 77, 57, 80, 56, 65, 117)
(163, 139, 74, 56, 82, 55, 66, 115)
(148, 127, 71, 56, 82, 52, 64, 113)
(132, 111, 65, 53, 86, 60, 68, 105)
(111, 105, 60, 56, 90, 74, 76, 102)
(101, 108, 62, 56, 93, 78, 81, 96)
(98, 114, 65, 59, 107, 89, 86, 91)
(95, 114, 62, 56, 108, 90, 88, 85)
(91, 105, 59, 54, 107, 88, 82, 84)
(100, 110, 58, 55, 103, 76, 70, 75)
(99, 119, 55, 55, 102, 74, 60, 68)
(115, 129, 55, 60, 82, 58, 48, 68)
(114, 130, 52, 61, 79, 56, 48, 74)
(116, 137, 57, 60, 75, 56, 51, 76)
(124, 135, 63, 58, 70, 54, 52, 82)
(127, 131, 71, 58, 68, 55, 61, 88)
(119, 126, 75, 57, 69, 62, 68, 91)
(125, 129, 80, 61, 67, 63, 73, 95)
(134, 131, 86, 60, 64, 67, 86, 103)
(130, 135, 85, 58, 66, 69, 92, 109)
(134, 140, 84, 58, 72, 72, 90, 113)
(148, 149, 88, 56, 74, 72, 93, 118)
(161, 161, 88, 51, 81, 69, 91, 123)
(170, 170, 89, 55, 102, 71, 78, 123)
(177, 177, 93, 58, 104, 72, 75, 122)
(177, 167, 96, 59, 97, 66, 74, 122)
(166, 153, 91, 56, 92, 60, 63, 116)
(149, 134, 88, 59, 83, 64, 58, 103)
(134, 115, 79, 55, 57, 61, 57, 97)
(120, 97, 72, 56, 55, 58, 51, 89)
(119, 100, 65, 52, 57, 62, 53, 84)
(117, 106, 59, 52, 62, 64, 53, 85)
(117, 111, 62, 52, 69, 67, 60, 87)
(126, 119, 64, 57, 76, 67, 60, 84)
(129, 123, 62, 53, 80, 69, 59, 85)
(128, 132, 63, 55, 82, 64, 58, 82)
(134, 137, 69, 57, 81, 67, 66, 82)
(133, 141, 68, 54, 79, 60, 62, 87)
(124, 140, 74, 48, 70, 52, 64, 87)
(115, 140, 73, 46, 67, 53, 65, 88)
(107, 131, 71, 41, 66, 53, 65, 88)
(93, 123, 64, 39, 70, 50, 58, 86)
(89, 120, 68, 37, 63, 50, 58, 81)
(103, 127, 63, 41, 66, 52, 56, 88)
(114, 130, 62, 41, 64, 51, 53, 90)
(128, 140, 70, 46, 67, 55, 50, 99)
(152, 152, 76, 47, 64, 59, 50, 108)
(172, 160, 79, 52, 73, 57, 55, 114)
(177, 157, 84, 54, 78, 60, 58, 118)
(179, 153, 90, 59, 82, 61, 60, 119)
(170, 140, 87, 59, 78, 63, 66, 116)
(151, 122, 83, 59, 79, 57, 64, 107)
(133, 108, 79, 58, 76, 59, 60, 103)
(111, 101, 70, 55, 67, 59, 55, 93)
(104, 96, 65, 51, 63, 60, 53, 85)
(107, 104, 60, 48, 60, 53, 46, 78)
(107, 107, 60, 45, 62, 61, 47, 80)
(108, 112, 61, 45, 61, 67, 45, 80)
(113, 114, 61, 46, 73, 64, 45, 84)
(116, 122, 58, 47, 80, 61, 47, 87)
(119, 125, 57, 61, 85, 65, 49, 89)
(127, 140, 66, 62, 88, 59, 50, 84)
(126, 143, 68, 63, 89, 56, 53, 89)
(125, 142, 77, 60, 79, 53, 57, 89)
(120, 141, 78, 58, 70, 55, 56, 88)
(113, 138, 81, 48, 71, 52, 57, 82)
(107, 129, 73, 47, 60, 48, 56, 91)
(108, 128, 70, 45, 59, 47, 53, 89)
(113, 134, 63, 52, 63, 53, 54, 93)
(130, 140, 69, 56, 66, 55, 63, 103)
(153, 153, 77, 56, 70, 61, 64, 112)
(166, 164, 80, 57, 85, 69, 72, 115)
(175, 167, 87, 60, 91, 70, 74, 119)
(182, 164, 93, 62, 94, 67, 80, 119)
(171, 155, 92, 61, 102, 67, 74, 116)
(149, 137, 82, 58, 97, 62, 77, 115)
(137, 114, 79, 56, 89, 57, 72, 105)
(124, 98, 69, 51, 85, 53, 72, 97)
(105, 86, 61, 44, 82, 52, 65, 92)
(104, 88, 55, 40, 77, 50, 70, 83)
(104, 94, 59, 46, 85, 64, 64, 77)
(102, 107, 61, 48, 84, 63, 64, 81)
(97, 104, 62, 50, 83, 68, 62, 83)
(107, 110, 62, 56, 84, 74, 62, 85)
(107, 123, 64, 57, 77, 71, 51, 86)
(120, 129, 63, 58, 67, 59, 51, 87)
(118, 130, 60, 58, 68, 58, 48, 84)
(127, 144, 64, 61, 70, 55, 53, 78)
(125, 154, 71, 59, 66, 51, 49, 79)
(124, 148, 72, 59, 67, 49, 52, 85)
(113, 143, 73, 52, 66, 51, 60, 84)
(114, 135, 73, 50, 62, 49, 61, 87)
(110, 134, 71, 44, 57, 49, 57, 93)
(122, 138, 70, 40, 60, 46, 61, 92)
(139, 145, 75, 44, 67, 58, 60, 96)
(151, 152, 81, 44, 74, 64, 57, 103)
(162, 166, 87, 48, 89, 66, 61, 108)
(171, 166, 91, 51, 93, 66, 63, 111)
(167, 155, 90, 54, 93, 72, 62, 115)
(155, 140, 82, 55, 87, 65, 62, 110)
(145, 132, 74, 54, 78, 57, 59, 104)
(133, 109, 67, 53, 62, 59, 58, 102)
(116, 94, 57, 51, 69, 61, 57, 94)
(111, 87, 54, 53, 70, 54, 61, 85)
(112, 96, 57, 50, 72, 53, 62, 83)
(111, 103, 59, 50, 73, 55, 59, 79)
(110, 107, 58, 50, 70, 57, 53, 71)
(110, 116, 58, 53, 61, 58, 52, 68)
(112, 124, 57, 50, 55, 57, 42, 70)
(111, 121, 55, 49, 63, 56, 46, 67)
(116, 117, 53, 51, 74, 57, 50, 69)
(126, 126, 61, 53, 82, 56, 53, 76)
(132, 135, 66, 49, 85, 49, 52, 80)
(128, 134, 71, 46, 88, 48, 55, 83)
(130, 140, 70, 43, 85, 55, 50, 88)
(130, 143, 76, 47, 74, 52, 50, 88)
(118, 138, 69, 45, 69, 54, 47, 86)
(120, 136, 71, 44, 64, 57, 51, 92)
(131, 147, 67, 46, 64, 59, 54, 92)
(148, 150, 73, 51, 75, 55, 59, 98)
(159, 159, 74, 47, 84, 57, 63, 106)
(172, 164, 84, 53, 88, 52, 67, 112)
(172, 158, 88, 53, 90, 49, 66, 110)
(166, 145, 91, 56, 88, 53, 66, 109)
(144, 132, 88, 50, 77, 53, 63, 105)
(131, 112, 87, 47, 69, 53, 59, 98)
(113, 99, 75, 42, 62, 54, 56, 88)
(105, 88, 65, 43, 58, 60, 60, 86)
(106, 89, 57, 44, 55, 56, 55, 87)
(109, 87, 56, 45, 59, 55, 53, 80)
(103, 94, 55, 50, 62, 53, 55, 77)
(109, 100, 61, 53, 59, 56, 55, 78)
(111, 107, 65, 54, 60, 47, 50, 75)
(109, 116, 69, 53, 65, 49, 49, 68)
(110, 129, 72, 59, 78, 50, 51, 70)
(113, 138, 69, 54, 79, 52, 47, 71)
(117, 145, 70, 49, 85, 49, 46, 74)
(119, 154, 69, 49, 86, 60, 46, 81)
(119, 153, 69, 50, 83, 58, 50, 82)
(122, 150, 70, 49, 68, 61, 52, 87)
(123, 143, 70, 51, 65, 63, 52, 90)
(118, 131, 69, 54, 58, 63, 54, 91)
(122, 136, 71, 54, 64, 57, 53, 89)
(145, 145, 79, 56, 71, 60, 55, 96)
(161, 158, 81, 55, 76, 58, 53, 105)
(177, 164, 89, 57, 90, 59, 57, 106)
(181, 169, 90, 58, 98, 63, 62, 111)
(178, 156, 93, 56, 97, 65, 61, 112)
(158, 141, 85, 55, 97, 64, 61, 109)
(138, 117, 77, 52, 94, 63, 66, 100)
(112, 101, 72, 47, 86, 61, 65, 94)
(99, 89, 65, 46, 75, 57, 59, 87)
(97, 89, 56, 50, 73, 55, 60, 84)
(98, 99, 55, 54, 72, 56, 57, 78)
(107, 101, 60, 55, 70, 57, 49, 74)
(113, 108, 52, 58, 71, 50, 48, 76)
(122, 124, 61, 61, 81, 49, 50, 74)
(125, 129, 63, 62, 82, 48, 52, 76)
(138, 134, 67, 54, 79, 52, 51, 83)
(136, 143, 66, 54, 77, 54, 52, 87)
(140, 149, 70, 52, 77, 59, 48, 86)
(142, 148, 69, 47, 75, 58, 50, 94)
(143, 150, 71, 44, 74, 56, 46, 94)
(134, 144, 66, 46, 76, 49, 48, 96)
(135, 138, 70, 47, 78, 46, 47, 94)
(127, 136, 71, 50, 75, 48, 56, 95)
(126, 133, 72, 50, 72, 51, 54, 93)
(135, 143, 74, 48, 71, 55, 59, 96)
(154, 156, 81, 57, 76, 56, 61, 99)
(170, 164, 91, 66, 83, 60, 64, 103)
(182, 165, 100, 67, 85, 58, 66, 118)
(179, 162, 104, 71, 84, 58, 72, 123)
(167, 145, 103, 71, 83, 53, 69, 123)
(149, 123, 97, 64, 78, 55, 69, 117)
(123, 105, 84, 61, 81, 54, 67, 112)
(101, 91, 72, 56, 74, 51, 65, 95)
(98, 87, 62, 56, 71, 52, 60, 85)
(93, 89, 57, 57, 71, 54, 57, 77)
(93, 93, 59, 57, 80, 58, 56, 74)
(103, 99, 57, 54, 70, 54, 55, 75)
(108, 114, 57, 58, 86, 59, 51, 75)
(114, 123, 64, 54, 88, 57, 54, 78)
(120, 132, 70, 49, 87, 56, 58, 88)
(126, 141, 71, 56, 79, 54, 62, 90)
(132, 155, 79, 55, 79, 54, 60, 93)
(140, 156, 79, 53, 65, 50, 59, 94)
(136, 151, 75, 54, 65, 59, 54, 90)
(137, 146, 71, 58, 78, 59, 52, 87)
(131, 143, 70, 51, 85, 59, 48, 93)
(123, 130, 64, 49, 86, 61, 48, 100)
(123, 135, 70, 47, 88, 65, 47, 108)
(141, 149, 70, 48, 90, 63, 50, 113)
(159, 163, 85, 51, 88, 62, 52, 115)
(179, 167, 90, 50, 80, 62, 52, 117)
(185, 166, 96, 57, 83, 62, 53, 113)
(181, 154, 95, 58, 86, 55, 55, 112)
(167, 136, 95, 55, 84, 49, 56, 117)
(145, 113, 85, 51, 76, 53, 59, 115)
(119, 96, 77, 55, 78, 55, 60, 109)
(103, 95, 65, 49, 76, 56, 66, 103)
(99, 99, 62, 49, 70, 60, 64, 94)
(103, 102, 59, 56, 70, 62, 63, 81)
(109, 109, 61, 58, 70, 58, 59, 72)
(121, 116, 65, 54, 70, 57, 58, 74)
(126, 118, 69, 55, 71, 65, 51, 76)
(130, 120, 77, 58, 74, 61, 54, 80)
(130, 132, 78, 55, 78, 58, 57, 84)
(137, 134, 78, 57, 75, 67, 59, 94)
(128, 137, 80, 59, 75, 66, 59, 96)
(128, 139, 82, 54, 79, 57, 57, 97)
(125, 147, 77, 54, 75, 60, 57, 99)
(125, 135, 77, 53, 76, 63, 56, 100)
(116, 134, 72, 47, 77, 55, 54, 99)
(118, 132, 68, 50, 78, 55, 61, 100)
(124, 139, 64, 52, 73, 54, 63, 104)
(133, 144, 69, 52, 74, 55, 62, 106)
(151, 163, 76, 56, 72, 60, 59, 113)
(168, 169, 82, 58, 84, 62, 63, 117)
(177, 171, 88, 62, 79, 60, 56, 115)
(173, 162, 90, 63, 78, 61, 54, 122)
(166, 145, 83, 64, 74, 58, 56, 120)
(148, 123, 79, 59, 80, 49, 58, 113)
(124, 106, 71, 58, 70, 48, 59, 108)
(108, 93, 61, 51, 72, 49, 62, 104)
(107, 95, 56, 51, 77, 49, 65, 91)
(108, 105, 55, 49, 76, 54, 62, 85)
(112, 109, 52, 49, 72, 54, 62, 83)
(121, 119, 54, 50, 73, 53, 58, 76)
(127, 128, 57, 50, 82, 59, 54, 76)
(125, 127, 64, 55, 82, 59, 50, 77)
(128, 132, 68, 58, 84, 57, 52, 78)
(128, 139, 70, 63, 81, 57, 50, 76)
(128, 146, 74, 63, 77, 56, 47, 89)
(130, 150, 79, 60, 74, 50, 46, 94)
(131, 150, 77, 58, 72, 51, 47, 92)
(132, 141, 77, 55, 71, 51, 45, 97)
(126, 138, 70, 49, 70, 48, 46, 96)
(117, 135, 68, 48, 73, 47, 53, 86)
(123, 132, 66, 47, 68, 51, 57, 94)
(134, 147, 74, 47, 69, 54, 58, 102)
(159, 165, 82, 56, 76, 55, 66, 105)
(173, 169, 90, 58, 86, 57, 63, 114)
(186, 166, 96, 59, 84, 55, 62, 124)
(182, 165, 94, 62, 86, 53, 64, 121)
(173, 149, 90, 62, 82, 54, 69, 118)
(143, 124, 83, 53, 75, 51, 65, 116)
(129, 111, 75, 48, 70, 50, 66, 108)
(110, 101, 66, 50, 75, 58, 64, 96)
(100, 86, 63, 46, 70, 62, 63, 88)
(97, 84, 55, 44, 70, 57, 60, 81)
(99, 90, 55, 48, 73, 61, 56, 74)
(101, 94, 56, 48, 70, 62, 54, 74)
(106, 110, 56, 51, 67, 58, 52, 70)
(119, 129, 60, 54, 71, 59, 49, 75)
(123, 136, 63, 54, 70, 57, 43, 76)
(130, 143, 63, 52, 71, 58, 42, 82)
(134, 146, 67, 58, 77, 64, 47, 86)
(133, 135, 67, 54, 75, 64, 45, 89)
(122, 129, 64, 53, 76, 61, 42, 90)
(117, 128, 66, 51, 79, 63, 46, 95)
(113, 130, 70, 53, 78, 59, 50, 94)
(108, 131, 66, 50, 76, 53, 49, 91)
(116, 141, 72, 49, 73, 55, 56, 99)
(129, 147, 73, 52, 72, 58, 62, 103)
(151, 161, 79, 60, 76, 61, 62, 111)
(167, 161, 85, 60, 81, 70, 67, 113)
(171, 160, 90, 63, 81, 69, 71, 118)
(175, 153, 92, 65, 87, 68, 69, 116)
(166, 140, 96, 62, 85, 68, 68, 117)
(147, 117, 90, 55, 77, 66, 66, 103)
(123, 102, 80, 50, 70, 57, 59, 100)
(115, 90, 74, 45, 66, 57, 57, 95)
(105, 94, 65, 45, 61, 54, 55, 90)
(108, 97, 60, 46, 61, 53, 54, 82)
(109, 105, 60, 49, 66, 60, 54, 83)
(121, 121, 66, 53, 66, 64, 53, 84)
(128, 132, 67, 64, 68, 63, 53, 88)
(129, 143, 75, 63, 69, 63, 55, 87)
(129, 148, 78, 63, 76, 59, 57, 89)
(134, 155, 79, 62, 81, 51, 57, 88)
(131, 154, 78, 66, 85, 56, 57, 84)
(121, 152, 80, 59, 87, 57, 57, 82)
(119, 146, 74, 60, 86, 56, 61, 87)
(119, 144, 73, 58, 84, 59, 61, 80)
(115, 132, 74, 59, 79, 57, 61, 84)
(113, 123, 70, 57, 78, 49, 63, 92)
(120, 127, 72, 51, 75, 55, 61, 96)
(138, 137, 77, 55, 78, 54, 56, 101)
(152, 147, 85, 60, 80, 54, 57, 117)
(165, 156, 90, 60, 84, 59, 54, 120)
(172, 160, 95, 60, 83, 60, 57, 119)
(173, 155, 96, 64, 84, 57, 54, 116)
(161, 137, 93, 59, 79, 59, 64, 113)
(154, 123, 81, 52, 74, 61, 63, 102)
(137, 107, 72, 55, 67, 60, 70, 95)
(122, 93, 64, 51, 62, 60, 65, 92)
(112, 95, 56, 49, 59, 60, 69, 86)
(111, 110, 51, 50, 58, 59, 57, 84)
(101, 114, 54, 56, 63, 56, 57, 82)
(106, 126, 57, 56, 67, 54, 58, 82)
(114, 137, 60, 55, 73, 52, 60, 78)
(123, 140, 65, 55, 78, 48, 54, 84)
(124, 141, 74, 55, 77, 47, 64, 84)
(130, 149, 79, 50, 73, 45, 66, 87)
(137, 149, 82, 47, 75, 46, 61, 94)
(138, 148, 86, 46, 74, 48, 61, 103)
(130, 150, 80, 47, 67, 51, 63, 106)
(129, 145, 76, 50, 66, 49, 57, 105)
(124, 134, 70, 52, 66, 50, 58, 102)
(112, 127, 64, 53, 62, 48, 55, 94)
(120, 133, 58, 54, 59, 50, 54, 92)
(133, 150, 80, 54, 63, 50, 55, 99)
(158, 159, 83, 54, 72, 58, 53, 110)
(176, 166, 94, 53, 81, 57, 52, 121)
(185, 171, 97, 53, 81, 55, 59, 131)
(180, 161, 98, 55, 82, 59, 62, 129)
(170, 138, 85, 55, 79, 59, 61, 120)
(144, 119, 81, 51, 72, 53, 64, 108)
(116, 102, 70, 48, 64, 57, 63, 94)
(110, 94, 61, 53, 62, 60, 65, 80)
(100, 92, 59, 52, 66, 57, 61, 75)
(104, 92, 58, 53, 67, 57, 65, 70)
(108, 99, 56, 53, 70, 58, 61, 70)
(122, 118, 63, 52, 74, 56, 62, 73)
(133, 133, 69, 52, 80, 57, 59, 82)
(143, 147, 72, 51, 74, 62, 61, 91)
(144, 153, 75, 56, 85, 64, 58, 99)
(151, 160, 75, 58, 90, 63, 60, 97)
(145, 155, 74, 58, 90, 62, 59, 99)
(133, 149, 73, 53, 83, 57, 55, 97)
(123, 140, 70, 52, 85, 47, 55, 90)
(120, 135, 66, 44, 70, 46, 58, 81)
(111, 128, 66, 44, 60, 47, 58, 84)
(109, 130, 60, 47, 48, 54, 56, 85)
(123, 140, 57, 45, 57, 60, 57, 85)
(146, 154, 71, 46, 60, 62, 60, 98)
(159, 163, 80, 49, 69, 70, 62, 103)
(172, 167, 89, 54, 79, 68, 62, 112)
(180, 163, 93, 53, 87, 65, 67, 112)
(169, 145, 96, 53, 88, 61, 68, 108)
(150, 126, 86, 49, 91, 63, 70, 100)
(137, 107, 79, 47, 88, 60, 69, 102)
(121, 94, 66, 41, 80, 60, 70, 91)
(112, 99, 63, 47, 75, 63, 65, 91)
(110, 103, 58, 51, 73, 63, 65, 87)
(113, 109, 57, 55, 70, 60, 61, 82)
(115, 114, 59, 55, 74, 54, 55, 75)
(121, 121, 61, 56, 78, 56, 54, 79)
(120, 124, 67, 54, 77, 51, 53, 75)
(130, 128, 71, 55, 76, 52, 51, 79)
(130, 133, 76, 62, 79, 55, 51, 83)
(129, 144, 81, 65, 81, 52, 50, 82)
(124, 145, 84, 64, 81, 50, 53, 82)
(119, 144, 81, 63, 82, 50, 59, 85)
(114, 148, 79, 61, 82, 54, 62, 85)
(112, 141, 75, 51, 77, 47, 63, 89)
(111, 134, 71, 47, 69, 48, 64, 93)
(115, 137, 70, 47, 72, 50, 61, 95)
(131, 148, 71, 44, 74, 54, 57, 96)
(147, 158, 76, 47, 82, 54, 53, 111)
(167, 167, 82, 50, 92, 59, 52, 112)
(178, 166, 89, 55, 97, 61, 55, 117)
(181, 163, 93, 54, 93, 60, 59, 120)
(169, 145, 91, 54, 91, 59, 62, 120)
(150, 121, 83, 51, 83, 54, 65, 111)
(126, 104, 75, 47, 71, 53, 63, 104)
(114, 97, 64, 42, 65, 55, 60, 98)
(108, 91, 55, 43, 64, 54, 55, 89)
(113, 106, 52, 42, 58, 52, 48, 86)
(126, 122, 58, 43, 59, 52, 43, 81)
(135, 133, 65, 43, 60, 52, 45, 87)
(137, 141, 72, 48, 61, 53, 44, 81)
(135, 147, 77, 50, 70, 57, 44, 87)
(134, 144, 83, 58, 73, 57, 52, 85)
(134, 148, 85, 56, 77, 57, 52, 90)
(129, 150, 84, 59, 80, 60, 54, 86)
(126, 145, 80, 53, 78, 58, 54, 93)
(129, 146, 76, 52, 70, 52, 56, 98)
(126, 143, 71, 43, 71, 54, 59, 97)
(123, 137, 70, 42, 66, 55, 59, 98)
(134, 146, 71, 45, 63, 49, 56, 103)
(146, 155, 72, 53, 65, 49, 59, 104)
(156, 159, 77, 59, 68, 55, 60, 100)
(173, 167, 83, 59, 71, 59, 52, 107)
(179, 166, 88, 62, 83, 61, 54, 111)
(171, 153, 86, 60, 88, 62, 55, 117)
(159, 142, 85, 57, 86, 59, 57, 117)
(145, 125, 80, 55, 85, 55, 57, 114)
(122, 104, 73, 57, 84, 49, 62, 106)
(104, 93, 62, 54, 72, 46, 63, 100)
(103, 91, 62, 54, 69, 46, 64, 84)
(106, 90, 61, 52, 70, 47, 61, 75)
(108, 104, 58, 53, 75, 50, 58, 71)
(123, 122, 62, 58, 76, 52, 55, 76)
(137, 134, 69, 60, 83, 55, 54, 74)
(140, 146, 70, 60, 84, 57, 50, 81)
(147, 156, 77, 61, 85, 68, 51, 87)
(154, 166, 79, 56, 85, 70, 54, 92)
(152, 168, 88, 52, 86, 69, 54, 99)
(148, 174, 82, 50, 85, 71, 53, 98)
(145, 173, 83, 51, 83, 72, 55, 98)
(138, 169, 81, 47, 80, 59, 56, 96)
(127, 154, 84, 48, 72, 55, 52, 94)
(130, 154, 76, 49, 71, 61, 47, 95)
(137, 156, 79, 50, 67, 62, 54, 97)
(154, 158, 82, 53, 66, 59, 58, 101)
(166, 170, 86, 55, 74, 62, 57, 111)
(180, 178, 92, 55, 82, 68, 56, 119)
(180, 169, 93, 57, 80, 63, 63, 112)
(173, 153, 96, 56, 80, 57, 58, 118)
(153, 139, 90, 51, 80, 56, 55, 118)
(139, 113, 80, 53, 77, 55, 58, 110)
(119, 94, 68, 52, 69, 52, 62, 103)
(106, 91, 61, 49, 68, 52, 62, 103)
(97, 91, 54, 56, 70, 53, 65, 93)
(100, 98, 57, 55, 71, 62, 62, 88)
(101, 106, 58, 55, 71, 65, 59, 82)
(112, 123, 66, 57, 72, 64, 58, 78)
(121, 124, 70, 52, 74, 66, 54, 80)
(127, 134, 71, 47, 70, 68, 53, 83)
(135, 145, 70, 49, 77, 63, 57, 83)
(141, 150, 74, 51, 77, 62, 57, 90)
(135, 144, 72, 54, 79, 61, 56, 103)
(130, 152, 81, 55, 80, 61, 59, 101)
(127, 147, 82, 56, 80, 59, 59, 103)
(119, 136, 79, 54, 80, 58, 54, 103)
(123, 134, 81, 50, 77, 60, 55, 102)
(135, 143, 80, 46, 76, 64, 57, 95)
(151, 150, 78, 48, 75, 61, 56, 101)
(162, 158, 78, 49, 75, 62, 53, 101)
(177, 166, 85, 52, 80, 61, 55, 105)
(179, 166, 89, 56, 81, 55, 56, 114)
(174, 156, 94, 57, 80, 50, 56, 112)
(158, 141, 92, 55, 84, 55, 56, 108)
(142, 125, 89, 53, 81, 53, 58, 107)
(123, 106, 85, 51, 66, 54, 56, 102)
(101, 91, 76, 45, 62, 56, 53, 90)
(101, 86, 70, 46, 59, 57, 54, 83)
(99, 89, 62, 54, 56, 51, 55, 79)
(106, 100, 71, 54, 58, 58, 50, 71)
(107, 113, 69, 56, 60, 59, 51, 74)
(117, 124, 76, 57, 65, 60, 54, 74)
(125, 135, 74, 55, 67, 58, 54, 80)
(139, 145, 80, 47, 66, 59, 50, 86)
(142, 153, 74, 48, 69, 55, 50, 95)
(141, 154, 79, 47, 66, 53, 51, 95)
(142, 154, 79, 54, 65, 48, 51, 100)
(130, 151, 78, 54, 65, 51, 49, 99)
(119, 145, 77, 53, 63, 49, 49, 93)
(114, 138, 76, 53, 59, 51, 51, 94)
(122, 142, 70, 52, 62, 49, 54, 91)
(136, 149, 72, 48, 74, 55, 53, 97)
(154, 157, 78, 53, 75, 53, 59, 103)
(168, 165, 81, 55, 78, 56, 62, 113)
(179, 165, 84, 59, 83, 52, 65, 113)
(177, 159, 90, 58, 83, 56, 67, 118)
(165, 145, 85, 61, 72, 59, 69, 111)
(147, 133, 79, 56, 70, 61, 65, 103)
(126, 107, 73, 54, 65, 59, 67, 94)
(105, 95, 65, 51, 65, 64, 64, 87)
(98, 87, 54, 52, 69, 60, 59, 77)
(99, 89, 53, 49, 71, 55, 55, 75)
(103, 94, 53, 51, 74, 55, 55, 76)
(105, 102, 56, 53, 79, 59, 49, 71)
(113, 117, 64, 50, 75, 56, 48, 69)
(114, 122, 69, 52, 74, 57, 47, 75)
(120, 134, 69, 49, 74, 53, 46, 82)
(126, 139, 73, 52, 77, 54, 49, 83)
(133, 151, 71, 50, 74, 49, 52, 94)
(135, 145, 66, 53, 72, 46, 55, 103)
(136, 145, 67, 53, 69, 49, 62, 103)
(135, 138, 65, 52, 63, 50, 62, 103)
(128, 136, 63, 48, 59, 48, 63, 111)
(128, 132, 67, 49, 62, 49, 64, 108)
(131, 147, 74, 51, 67, 56, 66, 105)
(147, 154, 78, 53, 79, 55, 60, 108)
(158, 164, 84, 56, 84, 56, 61, 112)
(170, 161, 87, 56, 83, 57, 61, 113)
(175, 156, 89, 61, 91, 59, 58, 119)
(173, 142, 86, 61, 91, 55, 60, 118)
(155, 134, 82, 56, 81, 54, 64, 113)
(134, 111, 76, 55, 81, 54, 63, 104)
(115, 102, 71, 55, 80, 54, 61, 91)
(99, 100, 63, 49, 72, 54, 64, 80)
(90, 99, 62, 51, 67, 49, 56, 72)
(94, 102, 59, 55, 73, 49, 52, 72)
(103, 116, 60, 53, 74, 50, 50, 75)
(109, 125, 62, 51, 77, 46, 46, 81)
(111, 131, 65, 53, 75, 47, 42, 76)
(121, 135, 70, 52, 77, 48, 48, 87)
(124, 143, 76, 49, 75, 48, 52, 89)
(127, 148, 77, 50, 70, 48, 53, 92)
(128, 149, 81, 52, 76, 52, 59, 93)
(126, 145, 79, 51, 74, 54, 59, 97)
(124, 147, 74, 46, 67, 52, 54, 96)
(120, 138, 71, 50, 61, 51, 54, 100)
(131, 140, 75, 54, 62, 50, 56, 103)
(144, 146, 75, 54, 58, 52, 51, 106)
(163, 156, 84, 55, 62, 52, 55, 116)
(173, 159, 87, 56, 74, 58, 58, 113)
(184, 166, 90, 58, 82, 61, 58, 114)
(179, 155, 89, 54, 86, 58, 54, 116)
(164, 141, 88, 55, 82, 53, 55, 114)
(149, 124, 80, 54, 89, 48, 59, 103)
(135, 113, 75, 53, 80, 46, 57, 104)
(123, 96, 67, 47, 74, 41, 54, 96)
(111, 95, 61, 50, 74, 45, 56, 83)
(111, 101, 53, 49, 78, 57, 57, 81)
(111, 111, 54, 46, 72, 62, 57, 77)
(114, 124, 59, 54, 74, 65, 59, 79)
(117, 129, 62, 53, 76, 70, 57, 87)
(124, 137, 64, 55, 69, 69, 57, 94)
(137, 142, 72, 57, 64, 62, 58, 90)
(135, 148, 78, 61, 61, 61, 52, 97)
(132, 146, 75, 56, 66, 60, 52, 95)
(127, 144, 76, 56, 62, 58, 53, 94)
(119, 138, 75, 56, 65, 57, 56, 95)
(106, 134, 71, 51, 64, 55, 57, 97)
(111, 125, 68, 53, 73, 55, 56, 96)
(128, 127, 73, 57, 70, 53, 57, 104)
(145, 145, 78, 56, 84, 54, 64, 109)
(160, 160, 85, 59, 83, 56, 63, 114)
(175, 164, 88, 63, 89, 56, 64, 129)
(178, 168, 90, 58, 86, 55, 69, 131)
(170, 160, 91, 57, 94, 58, 69, 126)
(156, 144, 88, 59, 83, 57, 66, 121)
(144, 124, 79, 54, 84, 62, 67, 115)
(130, 117, 74, 55, 78, 65, 64, 99)
(121, 112, 67, 54, 71, 62, 57, 90)
(115, 109, 61, 51, 62, 58, 53, 84)
(124, 120, 55, 51, 64, 54, 53, 84)
(127, 127, 61, 49, 70, 48, 51, 79)
(132, 133, 63, 43, 74, 48, 53, 81)
(141, 143, 67, 52, 78, 46, 59, 92)
(142, 147, 71, 53, 75, 47, 61, 93)
(137, 143, 72, 52, 79, 54, 56, 95)
(132, 143, 76, 53, 71, 53, 55, 92)
(121, 136, 74, 59, 70, 52, 52, 91)
(108, 127, 73, 54, 67, 55, 47, 87)
(103, 127, 65, 51, 67, 56, 45, 90)
(98, 124, 66, 53, 66, 48, 52, 84)
(120, 131, 60, 53, 73, 56, 50, 93)
(137, 143, 70, 50, 75, 63, 56, 98)
(157, 149, 77, 48, 86, 66, 55, 100)
(170, 156, 87, 51, 95, 68, 58, 106)
(177, 159, 93, 51, 94, 75, 61, 111)
(166, 147, 98, 49, 94, 73, 71, 111)
(151, 131, 90, 50, 95, 65, 70, 109)
(134, 121, 84, 52, 84, 68, 73, 108)
(118, 105, 74, 48, 75, 66, 72, 100)
(110, 91, 68, 52, 71, 60, 66, 94)
(105, 96, 57, 57, 74, 56, 58, 88)
(114, 104, 61, 56, 69, 57, 52, 84)
(116, 108, 73, 57, 77, 52, 50, 79)
(117, 115, 75, 60, 83, 50, 48, 81)
(119, 125, 75, 59, 85, 49, 52, 83)
(126, 139, 78, 60, 78, 59, 52, 85)
(128, 147, 78, 60, 74, 58, 54, 87)
(135, 152, 71, 63, 65, 60, 59, 96)
(139, 153, 73, 61, 71, 60, 62, 96)
(138, 154, 77, 62, 69, 59, 63, 98)
(133, 147, 74, 60, 79, 51, 63, 98)
(130, 140, 72, 60, 81, 54, 62, 100)
(127, 139, 70, 53, 81, 51, 56, 95)
(142, 147, 71, 54, 84, 57, 58, 100)
(159, 155, 73, 54, 83, 63, 65, 104)
(169, 160, 77, 50, 82, 62, 68, 115)
(181, 165, 84, 53, 88, 70, 73, 123)
(181, 163, 82, 54, 93, 68, 75, 123)
(169, 156, 84, 58, 83, 62, 79, 122)
(153, 154, 78, 62, 88, 58, 72, 118)
(147, 149, 80, 63, 78, 60, 81, 110)
(133, 148, 82, 64, 72, 51, 81, 98)
(130, 149, 85, 65, 67, 59, 80, 96)
(129, 148, 81, 61, 66, 60, 73, 91)
(129, 140, 82, 62, 61, 62, 70, 88)
(125, 144, 79, 65, 71, 59, 57, 85)
(124, 134, 67, 62, 70, 59, 56, 87)
(125, 137, 66, 62, 73, 53, 57, 91)
(120, 132, 71, 64, 74, 55, 57, 97)
(122, 140, 75, 63, 78, 55, 60, 100)
(123, 131, 75, 66, 76, 55, 60, 98)
(124, 135, 73, 66, 79, 55, 55, 94)
(118, 123, 72, 66, 78, 55, 52, 94)
(118, 126, 66, 66, 74, 54, 53, 91)
(114, 117, 57, 59, 68, 53, 51, 94)
(123, 127, 55, 55, 67, 55, 48, 96)
(138, 135, 64, 59, 76, 54, 49, 99)
(147, 147, 63, 62, 80, 54, 56, 99)
(152, 152, 71, 61, 82, 56, 60, 100)
(159, 152, 75, 59, 86, 52, 63, 100)
(151, 141, 74, 63, 89, 57, 74, 101)
(134, 128, 68, 60, 83, 62, 75, 100)
(126, 119, 66, 58, 78, 61, 71, 99)
(115, 108, 56, 56, 78, 59, 66, 91)
(107, 99, 49, 59, 73, 59, 63, 87)
(99, 101, 47, 49, 68, 53, 54, 84)
(97, 104, 49, 45, 69, 50, 50, 77)
(96, 99, 48, 41, 68, 49, 49, 69)
(101, 103, 52, 44, 73, 51, 50, 73)
(108, 107, 57, 41, 82, 52, 47, 66)
(120, 115, 58, 47, 85, 57, 45, 68)
(121, 117, 56, 49, 85, 59, 48, 76)
(129, 130, 64, 49, 87, 65, 50, 82)
(131, 126, 61, 49, 89, 61, 50, 80)
(122, 128, 54, 47, 85, 62, 50, 87)
(115, 121, 55, 43, 80, 55, 53, 90)
(118, 119, 57, 47, 74, 54, 54, 86)
(114, 112, 56, 49, 73, 50, 55, 92)
(121, 125, 62, 51, 69, 54, 53, 92)
(138, 139, 69, 57, 69, 56, 55, 96)
(148, 151, 74, 58, 71, 57, 55, 97)
(154, 153, 81, 57, 75, 55, 55, 102)
(155, 149, 77, 58, 73, 55, 60, 100)
(146, 139, 74, 57, 78, 55, 64, 100)
(131, 120, 69, 55, 74, 51, 64, 97)
(120, 109, 63, 55, 72, 51, 64, 86)
(106, 102, 50, 54, 72, 49, 63, 81)
(98, 99, 49, 52, 76, 49, 56, 78)
(99, 96, 49, 53, 71, 53, 53, 75)
(98, 101, 50, 53, 70, 56, 53, 64)
(102, 99, 53, 55, 73, 59, 49, 72)
(110, 109, 53, 52, 73, 59, 43, 71)
(111, 116, 56, 57, 78, 56, 49, 73)
(118, 122, 56, 55, 74, 53, 48, 76)
(116, 122, 56, 53, 81, 51, 50, 79)
(119, 126, 55, 51, 77, 46, 52, 81)
(113, 123, 57, 53, 75, 47, 56, 82)
(115, 122, 56, 48, 65, 53, 57, 78)
(110, 121, 56, 48, 68, 56, 55, 77)
(118, 122, 56, 49, 71, 57, 55, 81)
(124, 126, 56, 51, 79, 59, 56, 80)
(138, 132, 57, 49, 86, 65, 60, 85)
(152, 145, 63, 52, 91, 65, 59, 91)
(164, 151, 62, 51, 91, 59, 64, 94)
(162, 149, 67, 50, 89, 58, 69, 100)
(153, 141, 66, 49, 86, 59, 69, 100)
(139, 129, 65, 52, 85, 57, 67, 99)
(124, 110, 56, 49, 82, 53, 62, 94)
(111, 103, 57, 49, 78, 56, 58, 92)
(103, 104, 55, 49, 76, 60, 53, 80)
(104, 102, 54, 48, 73, 59, 51, 76)
(106, 107, 56, 49, 66, 51, 48, 70)
(100, 106, 57, 47, 61, 46, 48, 72)
(100, 103, 58, 46, 71, 42, 46, 72)
(108, 98, 55, 45, 73, 33, 49, 77)
(104, 102, 57, 44, 73, 35, 49, 78)
(104, 109, 55, 44, 85, 42, 48, 81)
(109, 111, 54, 47, 85, 44, 50, 78)
(112, 114, 57, 49, 80, 45, 50, 78)
(114, 119, 57, 55, 80, 51, 49, 80)
(115, 119, 54, 55, 80, 49, 46, 83)
(117, 118, 57, 56, 70, 49, 51, 88)
(117, 118, 60, 58, 72, 52, 55, 92)
(123, 128, 58, 60, 79, 54, 57, 97)
(135, 139, 64, 62, 85, 59, 58, 99)
(148, 150, 69, 62, 94, 64, 62, 101)
(154, 155, 71, 60, 95, 64, 61, 101)
(160, 156, 75, 56, 98, 63, 57, 105)
(151, 142, 72, 53, 93, 61, 57, 104)
(135, 132, 70, 48, 85, 54, 57, 100)
(121, 117, 70, 49, 77, 54, 59, 94)
(107, 103, 65, 52, 76, 53, 57, 86)
(95, 100, 58, 55, 75, 64, 58, 76)
(93, 102, 56, 56, 78, 71, 58, 70)
(93, 99, 54, 51, 80, 71, 54, 69)
(99, 104, 49, 54, 79, 69, 51, 71)
(120, 111, 53, 53, 76, 70, 52, 81)
(122, 111, 54, 50, 80, 62, 50, 84)
(122, 111, 59, 49, 73, 55, 54, 91)
(127, 117, 59, 51, 74, 54, 58, 95)
(124, 116, 60, 44, 77, 53, 55, 91)
(113, 118, 62, 45, 78, 52, 56, 88)
(119, 124, 64, 43, 69, 51, 67, 85)
(121, 132, 63, 41, 71, 51, 62, 82)
(118, 129, 64, 43, 69, 51, 59, 79)
(126, 142, 72, 45, 74, 51, 60, 88)
(133, 152, 77, 46, 80, 52, 64, 86)
(142, 160, 79, 48, 91, 53, 55, 99)
(151, 161, 79, 48, 93, 54, 60, 96)
(159, 163, 78, 52, 94, 55, 61, 101)
(154, 147, 70, 53, 90, 53, 62, 101)
(145, 132, 60, 52, 85, 50, 62, 103)
(131, 113, 54, 51, 78, 54, 60, 93)
(120, 104, 52, 55, 75, 54, 56, 89)
(108, 96, 47, 54, 75, 56, 54, 83)
(100, 101, 49, 56, 70, 59, 55, 77)
(99, 96, 50, 57, 72, 61, 51, 68)
(102, 106, 45, 58, 66, 61, 52, 68)
(101, 109, 56, 55, 66, 59, 52, 81)
(113, 112, 61, 54, 67, 56, 56, 82)
(119, 115, 60, 50, 66, 58, 65, 81)
(127, 129, 67, 51, 67, 56, 65, 88)
(130, 126, 72, 49, 76, 51, 68, 91)
(130, 119, 66, 50, 76, 55, 69, 84)
(119, 119, 61, 50, 76, 58, 69, 87)
(110, 118, 56, 51, 76, 59, 61, 90)
(102, 110, 52, 52, 75, 57, 59, 87)
(106, 116, 52, 50, 65, 60, 54, 86)
(124, 139, 53, 52, 71, 58, 56, 88)
(150, 154, 64, 57, 74, 59, 56, 101)
(160, 161, 71, 59, 77, 55, 58, 110)
(165, 164, 72, 61, 78, 57, 63, 115)
(164, 158, 72, 60, 81, 57, 64, 116)
(152, 142, 69, 59, 78, 59, 64, 115)
(131, 122, 63, 55, 74, 55, 67, 100)
(117, 107, 60, 50, 72, 52, 68, 87)
(107, 94, 57, 45, 69, 54, 67, 79)
(107, 95, 51, 51, 71, 54, 67, 72)
(105, 95, 52, 49, 72, 54, 68, 67)
(110, 100, 52, 46, 71, 59, 63, 67)
(113, 104, 52, 54, 71, 64, 60, 68)
(116, 107, 59, 52, 70, 64, 57, 76)
(117, 113, 65, 52, 77, 64, 62, 82)
(118, 115, 65, 53, 76, 61, 62, 82)
(115, 127, 65, 55, 78, 59, 59, 93)
(117, 130, 63, 51, 80, 55, 58, 94)
(121, 137, 56, 52, 81, 52, 60, 94)
(112, 135, 50, 47, 71, 49, 53, 93)
(115, 138, 50, 45, 66, 46, 50, 96)
(117, 129, 52, 47, 66, 42, 54, 89)
(129, 134, 57, 49, 68, 41, 48, 94)
(151, 148, 62, 49, 76, 43, 47, 96)
(165, 159, 74, 55, 84, 46, 54, 104)
(170, 165, 78, 56, 88, 50, 58, 110)
(174, 162, 83, 55, 89, 54, 61, 113)
(162, 155, 81, 53, 87, 55, 64, 109)
(141, 135, 80, 54, 77, 53, 67, 105)
(122, 116, 71, 52, 72, 49, 67, 98)
(107, 96, 66, 51, 71, 52, 63, 89)
(102, 97, 57, 50, 66, 47, 57, 83)
(105, 97, 54, 50, 66, 47, 55, 83)
(102, 101, 54, 50, 79, 54, 51, 82)
(112, 108, 57, 45, 82, 60, 50, 83)
(117, 114, 57, 46, 85, 58, 52, 84)
(119, 121, 59, 47, 83, 59, 54, 84)
(131, 131, 57, 54, 84, 61, 54, 82)
(128, 132, 57, 52, 76, 56, 60, 82)
(128, 130, 56, 57, 70, 51, 54, 77)
(126, 131, 60, 58, 74, 51, 56, 79)
(116, 123, 58, 59, 79, 53, 56, 76)
(105, 116, 60, 54, 72, 54, 55, 79)
(108, 111, 56, 56, 75, 57, 53, 79)
(108, 108, 56, 54, 74, 58, 54, 84)
(123, 128, 54, 54, 77, 58, 51, 90)
(145, 150, 65, 55, 78, 55, 53, 96)
(158, 157, 70, 59, 85, 53, 57, 104)
(169, 165, 77, 58, 83, 50, 58, 110)
(169, 168, 80, 55, 82, 48, 65, 108)
(160, 152, 83, 56, 75, 52, 68, 102)
(144, 126, 76, 53, 66, 57, 70, 103)
(132, 115, 69, 49, 63, 57, 70, 95)
(118, 108, 60, 55, 70, 59, 69, 87)
(112, 108, 59, 59, 77, 59, 65, 84)
(115, 112, 59, 54, 76, 54, 66, 84)
(112, 115, 59, 57, 79, 50, 61, 76)
(106, 114, 63, 56, 74, 47, 57, 72)
(110, 116, 65, 51, 70, 50, 52, 75)
(111, 116, 58, 50, 60, 49, 52, 82)
(107, 111, 55, 54, 59, 51, 47, 81)
(117, 120, 57, 49, 61, 47, 47, 82)
(120, 120, 58, 48, 65, 46, 52, 87)
(118, 117, 59, 52, 63, 39, 58, 87)
(114, 119, 62, 51, 62, 39, 57, 86)
(116, 118, 60, 54, 69, 50, 63, 93)
(112, 113, 57, 54, 69, 54, 63, 97)
(122, 132, 65, 56, 75, 55, 61, 100)
(137, 147, 70, 55, 79, 58, 57, 101)
(153, 149, 76, 55, 84, 58, 60, 108)
