(28, 34, 73, 275, 141, 58, 117, 46)
(26, 35, 61, 322, 138, 66, 153, 34)
(26, 33, 61, 334, 135, 66, 151, 33)
(28, 32, 55, 304, 120, 62, 140, 33)
(28, 30, 54, 326, 125, 58, 133, 31)
(27, 28, 61, 322, 116, 50, 127, 32)
(28, 26, 59, 273, 105, 52, 93, 32)
(30, 26, 84, 420, 128, 53, 97, 33)
(29, 26, 85, 445, 124, 55, 99, 33)
(29, 26, 92, 437, 120, 54, 95, 34)
(30, 29, 87, 441, 118, 56, 95, 33)
(28, 29, 90, 472, 123, 42, 82, 30)
(26, 29, 72, 352, 94, 49, 86, 28)
(26, 30, 75, 319, 89, 46, 80, 26)
(27, 32, 68, 312, 91, 47, 78, 25)
(27, 31, 66, 288, 82, 46, 75, 25)
(26, 32, 63, 242, 67, 53, 91, 23)
(29, 31, 69, 301, 77, 47, 104, 27)
(29, 33, 70, 347, 95, 48, 119, 31)
(27, 33, 83, 426, 104, 51, 123, 32)
(28, 31, 84, 432, 110, 57, 143, 32)
(28, 28, 84, 435, 123, 54, 151, 34)
(27, 30, 84, 405, 128, 54, 165, 36)
(26, 27, 79, 369, 115, 52, 204, 39)
(25, 27, 79, 300, 115, 49, 206, 39)
(24, 28, 81, 312, 113, 51, 200, 41)
(27, 31, 82, 317, 109, 51, 196, 44)
(30, 30, 78, 316, 102, 50, 210, 43)
(30, 28, 79, 308, 102, 52, 163, 39)
(30, 26, 67, 289, 98, 51, 176, 41)
(38, 28, 62, 271, 93, 42, 179, 39)
(35, 26, 58, 240, 90, 39, 171, 37)
(34, 29, 51, 172, 83, 38, 118, 33)
(47, 70, 43, 143, 86, 37, 116, 34)
(100, 120, 45, 95, 95, 37, 86, 49)
(443, 141, 51, 76, 168, 46, 74, 199)
(536, 375, 62, 67, 180, 57, 86, 257)
(631, 428, 67, 67, 192, 68, 100, 389)
(662, 461, 70, 74, 195, 86, 169, 491)
(790, 547, 82, 81, 187, 105, 179, 653)
(714, 622, 94, 92, 147, 120, 225, 682)
(701, 537, 98, 120, 156, 163, 300, 721)
(639, 581, 100, 126, 160, 208, 465, 705)
(653, 622, 108, 133, 172, 282, 556, 680)
(531, 641, 111, 139, 184, 308, 673, 560)
(478, 630, 111, 138, 186, 311, 739, 575)
(501, 721, 114, 119, 167, 305, 727, 591)
(511, 683, 121, 145, 175, 282, 709, 584)
(501, 646, 120, 152, 179, 210, 698, 564)
(529, 595, 116, 151, 177, 164, 618, 544)
(558, 543, 108, 143, 160, 152, 544, 459)
(489, 391, 102, 140, 169, 126, 541, 377)
(455, 349, 99, 137, 168, 114, 443, 303)
(401, 305, 165, 294, 190, 104, 339, 251)
(292, 198, 200, 525, 235, 131, 284, 218)
(188, 155, 244, 627, 415, 153, 245, 204)
(129, 157, 259, 755, 504, 157, 206, 107)
(105, 133, 299, 964, 581, 184, 196, 88)
(95, 133, 346, 999, 746, 204, 161, 79)
(100, 133, 378, 1130, 946, 227, 145, 88)
(98, 128, 398, 1244, 1083, 252, 147, 84)
(92, 119, 401, 1250, 1109, 317, 151, 88)
(95, 131, 513, 1268, 1145, 346, 151, 95)
(102, 122, 489, 1337, 1069, 384, 147, 94)
(92, 121, 488, 1272, 935, 403, 146, 89)
(87, 115, 477, 1257, 783, 394, 160, 82)
(82, 110, 474, 1281, 804, 382, 220, 85)
(77, 96, 352, 1268, 807, 359, 235, 81)
(54, 89, 326, 1216, 802, 311, 286, 76)
(55, 84, 271, 1124, 860, 272, 355, 83)
(62, 74, 232, 979, 849, 263, 403, 90)
(312, 83, 219, 857, 791, 201, 394, 168)
(490, 143, 152, 609, 681, 177, 492, 315)
(681, 328, 133, 428, 652, 169, 532, 480)
(827, 502, 126, 322, 492, 183, 615, 782)
(985, 538, 123, 254, 365, 186, 807, 990)
(1117, 586, 129, 210, 264, 236, 956, 1069)
(1112, 613, 141, 183, 248, 262, 1023, 1243)
(1086, 629, 179, 187, 266, 326, 1155, 1289)
(1096, 529, 217, 176, 293, 373, 1222, 1187)
(1113, 767, 348, 195, 330, 411, 1157, 1217)
(1148, 808, 382, 193, 324, 418, 1096, 1275)
(1192, 893, 391, 188, 322, 415, 1029, 1169)
(1174, 890, 391, 188, 298, 373, 977, 1110)
(1119, 955, 391, 196, 301, 338, 895, 1109)
(1010, 782, 286, 168, 248, 287, 850, 912)
(805, 716, 232, 154, 241, 243, 819, 725)
(669, 577, 213, 210, 237, 214, 795, 578)
(579, 487, 268, 263, 252, 207, 638, 487)
(477, 300, 313, 521, 288, 145, 517, 335)
(372, 218, 342, 636, 397, 146, 434, 263)
(252, 175, 365, 710, 608, 129, 312, 224)
(184, 155, 385, 916, 690, 214, 244, 170)
(149, 138, 400, 1057, 795, 284, 227, 126)
(118, 140, 427, 1132, 868, 350, 211, 108)
(120, 140, 495, 1218, 917, 391, 220, 118)
(129, 145, 516, 1279, 912, 445, 219, 117)
(119, 148, 520, 1230, 968, 451, 218, 111)
(117, 149, 505, 1253, 977, 420, 187, 98)
(110, 139, 452, 1154, 980, 379, 253, 90)
(92, 132, 357, 1089, 921, 354, 268, 67)
(67, 113, 325, 1136, 846, 325, 280, 54)
(54, 98, 312, 1135, 841, 284, 326, 67)
(57, 91, 303, 1198, 877, 274, 328, 72)
(59, 92, 324, 1225, 836, 270, 279, 77)
(56, 85, 311, 1156, 852, 250, 276, 79)
(56, 86, 298, 1020, 907, 198, 268, 78)
(61, 84, 277, 907, 889, 175, 246, 93)
(352, 86, 226, 567, 779, 163, 295, 337)
(624, 102, 170, 375, 730, 156, 542, 676)
(893, 292, 197, 358, 681, 163, 698, 910)
(1086, 324, 219, 266, 555, 178, 807, 1039)
(1185, 447, 249, 269, 390, 209, 1024, 1282)
(1201, 590, 249, 256, 331, 274, 1211, 1425)
(1223, 654, 246, 229, 299, 302, 1219, 1353)
(1217, 613, 242, 202, 303, 366, 1205, 1313)
(1135, 716, 243, 224, 309, 423, 1300, 1316)
(1246, 698, 261, 192, 302, 415, 1200, 1130)
(1291, 687, 290, 182, 339, 403, 1081, 981)
(1193, 733, 317, 193, 377, 395, 1046, 980)
(1086, 786, 307, 194, 367, 327, 1083, 935)
(1116, 805, 279, 154, 351, 252, 1016, 835)
(1036, 894, 260, 165, 346, 246, 1003, 846)
(983, 881, 227, 172, 264, 205, 984, 839)
(1007, 850, 179, 160, 219, 169, 994, 892)
(968, 858, 177, 146, 224, 155, 935, 804)
(868, 765, 177, 145, 204, 126, 816, 769)
(674, 653, 145, 124, 184, 119, 751, 718)
(577, 584, 125, 123, 197, 105, 704, 606)
(484, 511, 157, 169, 192, 107, 577, 397)
(417, 389, 213, 344, 228, 120, 446, 363)
(332, 339, 220, 674, 257, 127, 384, 330)
(306, 237, 234, 923, 355, 139, 339, 238)
(227, 190, 244, 1037, 427, 153, 220, 198)
(173, 149, 263, 1185, 504, 183, 210, 120)
(136, 148, 324, 1282, 547, 253, 199, 113)
(102, 145, 373, 1246, 562, 252, 188, 96)
(96, 138, 392, 1167, 640, 302, 177, 87)
(86, 121, 402, 1207, 619, 316, 169, 88)
(71, 120, 413, 1148, 683, 323, 147, 78)
(58, 98, 338, 1136, 758, 300, 140, 72)
(53, 94, 313, 1250, 784, 386, 132, 70)
(51, 92, 288, 1323, 771, 375, 121, 63)
(56, 97, 275, 1304, 776, 374, 126, 61)
(51, 81, 231, 1293, 737, 363, 128, 59)
(54, 87, 237, 1229, 670, 348, 149, 63)
(49, 79, 193, 1085, 635, 255, 150, 59)
(47, 80, 172, 912, 666, 211, 267, 68)
(38, 74, 154, 752, 657, 177, 272, 65)
(45, 75, 143, 634, 613, 163, 297, 71)
(69, 74, 119, 516, 565, 138, 327, 112)
(349, 109, 120, 287, 546, 122, 408, 298)
(568, 138, 112, 190, 353, 119, 440, 397)
(745, 245, 122, 171, 308, 127, 563, 594)
(869, 346, 116, 136, 230, 175, 590, 685)
(972, 458, 111, 119, 179, 195, 778, 794)
(973, 490, 110, 110, 179, 209, 903, 922)
(943, 547, 111, 100, 169, 223, 935, 939)
(903, 522, 103, 105, 165, 237, 1021, 933)
(840, 505, 139, 127, 161, 237, 1066, 898)
(768, 507, 162, 134, 157, 238, 1076, 897)
(769, 545, 202, 135, 171, 239, 1107, 774)
(850, 538, 215, 148, 212, 254, 1090, 819)
(801, 589, 220, 146, 245, 293, 1021, 844)
(936, 651, 222, 140, 309, 332, 1047, 862)
(1006, 651, 215, 134, 317, 326, 922, 860)
(995, 649, 221, 134, 318, 328, 830, 846)
(918, 664, 235, 124, 301, 311, 850, 785)
(1035, 656, 246, 124, 287, 265, 926, 741)
(927, 583, 227, 107, 214, 189, 848, 723)
(869, 538, 230, 107, 190, 181, 890, 653)
(896, 487, 185, 95, 187, 184, 813, 692)
(840, 420, 174, 87, 199, 178, 775, 662)
(722, 368, 153, 85, 178, 162, 618, 577)
(685, 430, 157, 89, 179, 144, 608, 533)
(626, 391, 140, 187, 219, 133, 502, 481)
(515, 365, 193, 445, 201, 95, 468, 336)
(494, 345, 200, 524, 190, 89, 453, 288)
(367, 331, 251, 595, 192, 96, 383, 184)
(288, 215, 314, 690, 446, 122, 329, 156)
(229, 225, 321, 713, 503, 136, 311, 115)
(195, 232, 306, 646, 513, 186, 292, 117)
(184, 260, 315, 642, 520, 187, 170, 108)
(163, 256, 292, 633, 526, 193, 140, 100)
(148, 230, 273, 724, 352, 194, 123, 106)
(139, 215, 291, 727, 246, 239, 125, 101)
(143, 252, 338, 864, 231, 217, 121, 105)
(121, 219, 351, 971, 267, 229, 154, 99)
(110, 219, 358, 971, 279, 279, 191, 107)
(94, 215, 335, 890, 310, 301, 244, 100)
(88, 205, 335, 939, 345, 291, 250, 97)
(71, 166, 310, 800, 362, 296, 251, 82)
(68, 180, 280, 678, 388, 298, 262, 83)
(65, 268, 301, 704, 395, 258, 266, 73)
(65, 312, 303, 657, 365, 229, 215, 65)
(70, 321, 280, 533, 384, 196, 206, 65)
(88, 314, 240, 493, 380, 177, 201, 64)
(101, 307, 220, 398, 342, 167, 168, 60)
(110, 232, 154, 258, 397, 153, 124, 51)
(117, 179, 128, 199, 420, 138, 202, 53)
(121, 162, 125, 209, 408, 138, 238, 57)
(108, 154, 121, 212, 423, 141, 270, 56)
(105, 148, 125, 204, 424, 148, 390, 64)
(98, 116, 124, 197, 353, 140, 436, 67)
(87, 118, 129, 192, 323, 146, 452, 65)
(80, 114, 122, 172, 269, 135, 540, 76)
(80, 110, 143, 191, 216, 131, 566, 81)
(67, 105, 157, 244, 170, 111, 511, 90)
(51, 101, 173, 240, 162, 128, 549, 96)
(50, 71, 169, 320, 150, 140, 560, 104)
(49, 64, 176, 352, 150, 173, 486, 106)
(44, 66, 169, 346, 149, 170, 478, 104)
(42, 60, 165, 346, 128, 182, 463, 94)
(43, 60, 144, 352, 122, 174, 401, 91)
(50, 60, 130, 279, 107, 163, 356, 88)
(74, 91, 121, 236, 103, 131, 338, 82)
(92, 109, 112, 216, 94, 128, 317, 84)
(98, 142, 103, 165, 89, 103, 364, 95)
(103, 154, 102, 130, 89, 100, 333, 88)
(102, 154, 98, 127, 92, 92, 324, 81)
(90, 145, 94, 125, 91, 86, 400, 88)
(74, 135, 78, 120, 97, 91, 383, 84)
(72, 109, 71, 112, 101, 89, 349, 75)
(78, 96, 63, 124, 115, 91, 361, 78)
(81, 100, 76, 156, 161, 118, 373, 82)
(78, 90, 79, 160, 176, 133, 308, 74)
(76, 82, 83, 176, 182, 148, 302, 75)
(76, 76, 93, 183, 199, 177, 356, 82)
(66, 80, 104, 214, 221, 221, 401, 92)
(60, 73, 96, 200, 198, 232, 466, 96)
(59, 74, 94, 200, 200, 229, 474, 96)
(56, 74, 103, 245, 224, 228, 520, 102)
(53, 74, 96, 244, 220, 206, 486, 94)
(49, 65, 85, 223, 199, 170, 456, 85)
(53, 67, 101, 231, 212, 150, 387, 85)
(51, 70, 103, 227, 201, 147, 395, 82)
(50, 67, 102, 218, 172, 141, 345, 74)
(48, 68, 105, 275, 169, 147, 337, 72)
(48, 70, 108, 276, 156, 144, 320, 69)
(40, 67, 117, 369, 128, 136, 312, 71)
(37, 63, 118, 385, 121, 143, 260, 68)
(36, 62, 118, 433, 159, 134, 234, 64)
(37, 56, 136, 452, 158, 159, 225, 65)
(33, 51, 151, 563, 175, 162, 228, 68)
(36, 48, 141, 547, 186, 162, 229, 65)
(39, 52, 160, 684, 256, 202, 237, 66)
(41, 70, 203, 845, 275, 228, 241, 71)
(40, 69, 190, 847, 280, 223, 249, 73)
(41, 73, 183, 831, 284, 246, 246, 75)
(39, 115, 187, 837, 305, 274, 257, 69)
(45, 134, 184, 754, 269, 297, 278, 88)
(44, 143, 138, 574, 225, 283, 310, 95)
(48, 157, 153, 565, 215, 285, 319, 97)
(51, 174, 147, 480, 198, 264, 366, 95)
(63, 220, 140, 415, 156, 318, 372, 99)
(59, 219, 118, 352, 120, 279, 392, 84)
(63, 214, 106, 242, 118, 296, 463, 79)
(70, 214, 73, 130, 105, 293, 502, 92)
(71, 207, 64, 113, 104, 302, 480, 104)
(63, 138, 44, 101, 93, 222, 493, 104)
(69, 138, 60, 125, 97, 222, 552, 117)
(71, 136, 82, 152, 112, 247, 530, 119)
(66, 129, 85, 150, 112, 240, 499, 121)
(67, 135, 86, 150, 108, 223, 517, 125)
(70, 140, 86, 160, 112, 221, 524, 125)
(65, 146, 76, 141, 109, 208, 452, 117)
(70, 152, 85, 165, 93, 147, 426, 117)
(77, 148, 109, 180, 92, 159, 433, 118)
(88, 132, 111, 179, 97, 157, 427, 107)
(90, 115, 121, 175, 85, 147, 482, 108)
(96, 84, 131, 196, 90, 147, 460, 100)
(118, 63, 123, 171, 84, 137, 477, 114)
(128, 91, 108, 187, 88, 119, 509, 112)
(151, 177, 106, 190, 94, 131, 533, 135)
(168, 199, 109, 210, 109, 160, 468, 165)
(221, 225, 100, 195, 123, 171, 503, 175)
(248, 246, 91, 181, 135, 173, 524, 193)
(259, 303, 85, 151, 144, 179, 491, 188)
(294, 276, 86, 151, 149, 180, 460, 178)
(312, 326, 74, 129, 146, 155, 500, 164)
(290, 318, 80, 153, 145, 139, 477, 164)
(270, 305, 84, 150, 147, 148, 414, 134)
(276, 249, 100, 161, 157, 145, 418, 140)
(233, 245, 108, 177, 169, 139, 406, 130)
(208, 185, 124, 185, 187, 149, 360, 124)
(187, 178, 127, 179, 188, 156, 338, 111)
(172, 176, 138, 224, 208, 215, 315, 103)
(142, 163, 127, 278, 206, 212, 269, 90)
(116, 150, 125, 344, 200, 217, 238, 83)
(99, 112, 148, 423, 188, 213, 168, 64)
(96, 96, 156, 579, 195, 211, 148, 61)
(83, 89, 155, 684, 181, 144, 141, 60)
(68, 87, 191, 798, 197, 146, 129, 57)
(67, 78, 221, 891, 241, 139, 124, 58)
(56, 62, 242, 1079, 251, 173, 105, 48)
(53, 68, 250, 1098, 294, 199, 116, 52)
(54, 66, 249, 1072, 330, 229, 150, 58)
(53, 65, 242, 1014, 321, 255, 153, 60)
(51, 67, 233, 997, 304, 291, 193, 63)
(46, 72, 219, 821, 336, 298, 224, 65)
(46, 65, 201, 706, 314, 289, 219, 61)
(44, 66, 193, 641, 339, 302, 197, 57)
(38, 62, 168, 582, 428, 314, 197, 56)
(35, 56, 142, 421, 480, 310, 166, 55)
(45, 49, 103, 313, 509, 319, 121, 52)
(76, 65, 107, 268, 528, 370, 119, 60)
(84, 64, 108, 268, 506, 354, 116, 63)
(85, 69, 107, 272, 493, 332, 133, 63)
(91, 73, 109, 367, 490, 316, 139, 60)
(90, 74, 98, 341, 456, 284, 228, 69)
(79, 68, 92, 353, 418, 208, 332, 77)
(199, 82, 90, 350, 396, 187, 401, 98)
(236, 119, 90, 336, 322, 176, 419, 186)
(294, 177, 94, 215, 215, 156, 636, 415)
(336, 251, 91, 172, 175, 154, 718, 495)
(391, 312, 102, 159, 188, 169, 747, 615)
(431, 369, 125, 164, 201, 242, 761, 700)
(488, 377, 145, 178, 211, 382, 836, 743)
(533, 472, 147, 175, 224, 415, 816, 820)
(575, 541, 160, 175, 230, 437, 866, 835)
(633, 589, 179, 163, 249, 433, 913, 792)
(664, 624, 222, 159, 278, 409, 988, 813)
(836, 772, 229, 142, 281, 307, 999, 809)
(876, 844, 245, 140, 278, 275, 937, 703)
(924, 833, 244, 137, 265, 260, 886, 699)
(922, 892, 244, 139, 257, 260, 952, 764)
(885, 868, 207, 139, 216, 244, 889, 775)
(737, 782, 196, 144, 194, 232, 830, 728)
(684, 656, 175, 145, 180, 213, 830, 698)
(612, 639, 163, 145, 178, 178, 763, 654)
(542, 481, 136, 136, 155, 178, 573, 524)
(520, 452, 121, 113, 137, 161, 492, 337)
(434, 363, 125, 164, 150, 132, 434, 320)
(351, 317, 140, 229, 209, 131, 340, 226)
(244, 201, 162, 320, 229, 129, 301, 138)
(181, 169, 174, 387, 231, 145, 197, 110)
(139, 131, 193, 433, 276, 164, 164, 86)
(122, 109, 211, 505, 310, 177, 143, 79)
(102, 103, 241, 716, 355, 198, 118, 68)
(80, 105, 291, 822, 536, 221, 113, 60)
(74, 115, 350, 930, 647, 216, 115, 60)
(69, 114, 377, 1088, 724, 290, 119, 62)
(69, 120, 400, 1233, 909, 315, 107, 57)
(65, 116, 398, 1228, 975, 324, 120, 56)
(62, 114, 369, 1210, 923, 330, 124, 57)
(55, 97, 317, 1145, 961, 350, 127, 57)
(52, 94, 289, 1048, 926, 299, 116, 50)
(59, 93, 323, 1110, 805, 296, 139, 57)
(55, 86, 308, 1103, 717, 284, 140, 54)
(57, 88, 331, 1177, 736, 279, 134, 54)
(56, 88, 323, 1223, 630, 257, 141, 55)
(53, 82, 319, 1218, 625, 254, 196, 58)
(42, 70, 248, 1038, 538, 217, 213, 57)
(44, 72, 243, 930, 512, 217, 285, 68)
(52, 60, 194, 759, 404, 193, 385, 105)
(74, 100, 228, 636, 370, 182, 577, 166)
(109, 158, 234, 556, 297, 163, 648, 196)
(226, 228, 226, 414, 276, 167, 761, 273)
(384, 305, 227, 367, 272, 163, 891, 470)
(686, 434, 228, 292, 290, 190, 934, 588)
(798, 485, 200, 261, 228, 209, 922, 718)
(981, 526, 178, 188, 240, 229, 985, 810)
(1052, 609, 170, 172, 249, 285, 1053, 854)
(1128, 619, 172, 166, 244, 314, 1066, 816)
(1081, 635, 179, 177, 235, 338, 1079, 788)
(1101, 739, 206, 187, 252, 377, 1087, 727)
(1045, 782, 217, 172, 236, 377, 1130, 718)
(1029, 811, 225, 169, 256, 351, 1013, 713)
(1058, 802, 214, 159, 307, 360, 918, 769)
(1043, 754, 201, 160, 306, 369, 932, 791)
(1013, 698, 163, 135, 301, 313, 949, 764)
(931, 681, 162, 131, 298, 310, 850, 704)
(998, 637, 167, 136, 280, 306, 895, 672)
(933, 646, 177, 136, 205, 259, 910, 555)
(857, 631, 177, 187, 206, 190, 820, 457)
(776, 538, 228, 311, 232, 204, 688, 411)
(751, 452, 249, 395, 293, 202, 586, 357)
(541, 322, 248, 510, 306, 183, 466, 268)
(316, 236, 253, 781, 370, 233, 311, 227)
(224, 192, 301, 966, 509, 276, 239, 169)
(187, 169, 347, 1048, 716, 303, 223, 147)
(149, 141, 368, 1133, 805, 312, 189, 107)
(133, 119, 382, 1316, 972, 339, 195, 109)
(133, 135, 461, 1333, 1045, 421, 198, 107)
(126, 142, 456, 1277, 1047, 423, 195, 107)
(117, 143, 413, 1277, 1018, 465, 204, 98)
(116, 132, 415, 1299, 1077, 493, 201, 101)
(101, 128, 408, 1141, 996, 492, 182, 93)
(71, 99, 374, 1129, 984, 432, 195, 88)
(65, 87, 356, 1161, 979, 411, 195, 93)
(66, 86, 345, 1087, 1025, 365, 195, 90)
(60, 81, 314, 1144, 932, 343, 222, 90)
(54, 71, 308, 1131, 953, 324, 230, 93)
(52, 67, 216, 973, 913, 284, 224, 88)
(47, 60, 194, 833, 899, 271, 305, 81)
(44, 54, 181, 808, 773, 236, 319, 77)
(42, 56, 141, 476, 703, 177, 323, 74)
(38, 59, 100, 298, 558, 148, 333, 68)
(34, 65, 191, 237, 471, 139, 340, 65)
(35, 81, 265, 216, 351, 152, 348, 77)
(37, 119, 300, 225, 178, 131, 351, 85)
(39, 173, 334, 226, 155, 128, 359, 83)
(37, 178, 337, 230, 141, 123, 365, 86)
(38, 185, 296, 219, 121, 105, 442, 97)
(43, 185, 228, 198, 97, 87, 451, 116)
(45, 206, 175, 128, 94, 85, 569, 150)
(65, 184, 96, 114, 83, 101, 632, 216)
(149, 188, 82, 98, 112, 140, 702, 249)
(215, 238, 76, 100, 120, 169, 746, 276)
(263, 309, 72, 96, 127, 186, 811, 290)
(308, 296, 76, 96, 138, 190, 798, 311)
(448, 369, 94, 102, 192, 202, 853, 326)
(494, 413, 100, 111, 192, 198, 963, 458)
(534, 410, 110, 115, 226, 211, 1005, 484)
(609, 412, 115, 124, 230, 227, 997, 595)
(706, 466, 121, 123, 242, 231, 1023, 717)
(706, 459, 133, 127, 200, 226, 1052, 713)
(737, 456, 141, 119, 201, 211, 1011, 668)
(874, 461, 137, 122, 192, 182, 941, 690)
(852, 449, 141, 117, 195, 153, 910, 647)
(788, 458, 137, 125, 191, 143, 849, 515)
(739, 414, 113, 115, 193, 126, 722, 500)
(681, 375, 119, 155, 197, 139, 595, 457)
(442, 347, 123, 188, 177, 140, 538, 377)
(368, 306, 134, 204, 212, 119, 458, 264)
(298, 186, 162, 318, 232, 116, 390, 203)
(237, 156, 169, 354, 256, 122, 343, 172)
(187, 142, 184, 548, 293, 118, 245, 115)
(132, 119, 198, 591, 348, 121, 204, 101)
(90, 105, 254, 782, 393, 134, 196, 83)
(83, 86, 272, 900, 483, 147, 173, 70)
(72, 82, 351, 1046, 560, 153, 142, 63)
(62, 86, 393, 1122, 589, 158, 138, 57)
(66, 94, 433, 1290, 605, 169, 151, 59)
(63, 90, 405, 1256, 588, 163, 129, 57)
(61, 91, 398, 1218, 600, 323, 140, 59)
(62, 87, 347, 1217, 567, 323, 151, 60)
(60, 85, 328, 1277, 587, 341, 150, 58)
(53, 77, 296, 1226, 547, 339, 136, 56)
(50, 79, 320, 1249, 598, 349, 138, 56)
(51, 74, 308, 1255, 567, 222, 136, 62)
(48, 72, 298, 1213, 586, 241, 121, 58)
(44, 66, 255, 1049, 539, 220, 115, 58)
(44, 60, 220, 915, 600, 221, 146, 57)
(41, 50, 167, 798, 538, 204, 140, 54)
(37, 46, 151, 692, 477, 184, 152, 49)
(54, 51, 122, 546, 406, 149, 358, 82)
(106, 86, 100, 417, 370, 132, 391, 114)
(195, 108, 72, 309, 238, 125, 480, 317)
(438, 188, 81, 249, 216, 168, 608, 554)
(604, 294, 88, 205, 234, 201, 795, 716)
(650, 378, 94, 161, 237, 217, 824, 808)
(674, 391, 97, 148, 257, 243, 963, 894)
(710, 470, 114, 152, 252, 263, 1000, 963)
(657, 561, 146, 147, 257, 273, 1015, 989)
(778, 735, 222, 156, 236, 304, 943, 956)
(918, 810, 252, 158, 225, 339, 1001, 941)
(1020, 855, 269, 155, 234, 349, 1026, 1014)
(1063, 888, 309, 149, 274, 357, 1015, 986)
(1238, 939, 341, 145, 284, 351, 1059, 882)
(1209, 884, 315, 126, 295, 324, 1074, 858)
(1289, 847, 338, 113, 292, 288, 1007, 887)
(1253, 844, 349, 144, 295, 281, 895, 753)
(1269, 775, 315, 140, 282, 267, 831, 670)
(1207, 662, 268, 129, 273, 274, 684, 730)
(1218, 547, 262, 138, 253, 259, 608, 700)
(1038, 480, 213, 141, 244, 245, 533, 617)
(1011, 450, 175, 122, 214, 224, 479, 591)
(925, 471, 169, 122, 190, 202, 550, 589)
(736, 434, 179, 200, 161, 165, 550, 454)
(497, 396, 183, 301, 261, 154, 509, 389)
(401, 346, 176, 352, 383, 154, 486, 311)
(272, 256, 185, 375, 449, 132, 428, 232)
(177, 171, 221, 571, 529, 134, 299, 118)
(134, 126, 236, 706, 565, 120, 228, 104)
(111, 105, 239, 832, 562, 131, 190, 80)
(84, 95, 252, 870, 614, 130, 137, 70)
(71, 85, 290, 982, 681, 143, 125, 62)
(74, 89, 309, 1110, 805, 146, 111, 58)
(72, 94, 315, 1140, 923, 164, 123, 67)
(76, 101, 345, 1145, 950, 216, 146, 76)
(71, 100, 350, 1266, 968, 281, 170, 74)
(68, 101, 336, 1221, 1054, 385, 172, 75)
(61, 92, 302, 1072, 1025, 430, 186, 73)
(63, 89, 294, 1115, 929, 437, 178, 72)
(53, 80, 250, 1061, 959, 418, 162, 58)
(62, 94, 271, 943, 952, 390, 196, 74)
(58, 88, 240, 953, 812, 282, 201, 74)
(58, 88, 237, 976, 712, 205, 234, 75)
(53, 84, 219, 822, 715, 174, 393, 98)
(57, 78, 216, 813, 625, 171, 433, 103)
(46, 57, 158, 745, 532, 139, 496, 95)
(55, 58, 162, 679, 532, 145, 612, 132)
(53, 48, 149, 571, 563, 153, 672, 154)
(54, 49, 131, 498, 521, 147, 670, 153)
(62, 67, 95, 354, 504, 127, 710, 189)
(83, 127, 83, 287, 454, 136, 768, 247)
(166, 186, 71, 213, 371, 170, 821, 285)
(238, 227, 75, 158, 238, 200, 898, 313)
(376, 242, 77, 138, 223, 263, 961, 381)
(432, 312, 102, 117, 206, 300, 1039, 405)
(496, 339, 108, 113, 193, 431, 1043, 407)
(503, 368, 113, 110, 189, 462, 1014, 458)
(561, 443, 113, 120, 191, 481, 978, 475)
(601, 456, 126, 142, 198, 466, 977, 505)
(627, 492, 134, 144, 251, 449, 1067, 723)
(710, 503, 140, 168, 254, 331, 1071, 763)
(721, 498, 143, 178, 255, 270, 1102, 730)
(679, 501, 147, 170, 241, 205, 1088, 724)
(665, 535, 156, 152, 233, 188, 1028, 692)
(658, 552, 159, 152, 179, 179, 928, 474)
(527, 579, 180, 142, 220, 180, 891, 443)
(553, 592, 198, 147, 226, 183, 855, 532)
(552, 551, 203, 158, 233, 190, 874, 531)
(524, 510, 194, 156, 231, 177, 866, 545)
(507, 433, 178, 158, 225, 173, 763, 523)
(513, 349, 148, 189, 177, 156, 765, 502)
(546, 282, 143, 335, 240, 175, 681, 403)
(541, 232, 170, 381, 261, 182, 604, 378)
(470, 213, 206, 593, 265, 212, 574, 316)
(413, 161, 254, 779, 353, 408, 519, 279)
(385, 144, 271, 932, 380, 424, 391, 208)
(205, 120, 297, 946, 421, 416, 351, 155)
(144, 107, 334, 1048, 488, 488, 251, 126)
(110, 96, 368, 1018, 755, 487, 160, 102)
(115, 110, 395, 1132, 869, 338, 147, 97)
(111, 120, 454, 1116, 908, 315, 150, 87)
(112, 129, 508, 1199, 1004, 308, 135, 88)
(102, 132, 538, 1235, 1011, 148, 131, 81)
(111, 171, 656, 1438, 1020, 88, 138, 87)
(126, 208, 758, 1383, 1095, 80, 148, 99)
(140, 231, 837, 1519, 1109, 68, 151, 112)
(144, 239, 834, 1569, 1100, 65, 140, 110)
(149, 237, 825, 1559, 1108, 77, 152, 117)
(137, 218, 734, 1417, 987, 70, 149, 112)
(113, 177, 613, 1397, 846, 75, 135, 97)
(92, 141, 470, 1259, 836, 79, 122, 78)
(79, 118, 401, 1130, 726, 78, 118, 70)
(65, 110, 339, 1020, 671, 64, 116, 60)
(56, 96, 284, 898, 619, 61, 124, 52)
(52, 87, 239, 743, 510, 83, 216, 56)
(75, 78, 173, 562, 415, 83, 236, 62)
(162, 81, 148, 429, 393, 86, 451, 115)
(246, 167, 136, 370, 383, 98, 469, 136)
(408, 250, 162, 344, 333, 107, 558, 165)
(499, 256, 174, 289, 318, 85, 603, 196)
(548, 263, 165, 222, 291, 85, 734, 234)
(549, 328, 162, 186, 225, 86, 701, 233)
(555, 347, 156, 149, 163, 96, 746, 263)
(616, 421, 118, 104, 164, 90, 795, 350)
(569, 456, 130, 355, 148, 97, 892, 387)
(682, 553, 167, 398, 164, 106, 925, 452)
(715, 578, 176, 406, 174, 138, 961, 561)
(820, 621, 184, 415, 181, 191, 1056, 651)
(816, 637, 212, 421, 177, 214, 1074, 709)
(991, 936, 286, 261, 176, 231, 1056, 815)
(1010, 1011, 295, 198, 171, 237, 1094, 853)
(1033, 1091, 344, 194, 163, 224, 1160, 871)
(1012, 1114, 345, 175, 161, 180, 1064, 884)
(988, 1123, 348, 159, 162, 170, 1009, 881)
(923, 966, 315, 132, 163, 158, 934, 874)
(856, 855, 297, 116, 150, 157, 821, 867)
(817, 762, 239, 96, 163, 173, 658, 836)
(757, 726, 247, 128, 180, 170, 731, 768)
(691, 651, 228, 183, 227, 158, 691, 690)
(533, 516, 241, 302, 281, 159, 679, 538)
(429, 474, 300, 546, 319, 155, 593, 419)
(370, 380, 326, 688, 347, 153, 539, 288)
(272, 250, 412, 957, 393, 189, 362, 199)
(230, 201, 509, 1112, 490, 240, 326, 144)
(175, 160, 583, 1223, 620, 282, 273, 136)
(141, 168, 642, 1220, 727, 298, 257, 106)
(143, 164, 676, 1256, 849, 368, 259, 87)
(146, 170, 704, 1263, 935, 398, 286, 96)
(150, 192, 783, 1318, 1073, 406, 336, 103)
(147, 196, 753, 1306, 1078, 407, 331, 111)
(145, 204, 742, 1418, 1060, 429, 357, 117)
(146, 211, 766, 1415, 978, 384, 357, 127)
(131, 197, 692, 1276, 913, 355, 327, 118)
(109, 175, 572, 1238, 700, 321, 270, 109)
(101, 161, 527, 1169, 632, 278, 247, 99)
(81, 126, 432, 988, 566, 225, 220, 88)
(66, 101, 306, 884, 523, 186, 179, 71)
(65, 101, 306, 840, 491, 139, 194, 71)
(58, 76, 179, 576, 486, 120, 315, 77)
(187, 117, 141, 469, 390, 114, 393, 128)
(257, 184, 125, 323, 327, 107, 483, 154)
(285, 190, 96, 219, 316, 103, 585, 178)
(325, 237, 81, 172, 249, 108, 643, 202)
(403, 305, 83, 141, 216, 114, 746, 255)
(482, 439, 86, 110, 195, 114, 891, 275)
(525, 484, 106, 131, 195, 122, 900, 275)
(569, 534, 122, 305, 201, 174, 912, 314)
(639, 711, 198, 338, 203, 476, 1046, 371)
(878, 916, 318, 355, 194, 510, 1051, 383)
(1010, 973, 328, 369, 251, 522, 991, 519)
(1056, 1054, 362, 379, 310, 557, 1029, 592)
(1124, 1153, 388, 287, 353, 565, 1057, 660)
(1250, 1174, 403, 350, 387, 359, 983, 650)
(1103, 1093, 339, 345, 375, 308, 980, 646)
(1099, 1081, 343, 383, 345, 294, 937, 563)
(1075, 1001, 343, 622, 325, 237, 878, 497)
(988, 861, 365, 837, 380, 184, 807, 380)
(756, 682, 323, 875, 366, 171, 724, 338)
(716, 536, 319, 918, 402, 191, 611, 319)
(422, 318, 310, 943, 414, 225, 547, 243)
(249, 209, 267, 819, 426, 220, 490, 203)
(180, 180, 183, 594, 518, 222, 422, 176)
(210, 179, 167, 502, 599, 222, 351, 158)
(316, 231, 130, 432, 616, 200, 250, 107)
(395, 333, 111, 341, 656, 150, 221, 101)
(414, 343, 119, 301, 714, 118, 184, 97)
(424, 351, 139, 324, 736, 121, 165, 95)
(414, 338, 137, 317, 723, 109, 144, 93)
(322, 290, 127, 288, 811, 106, 125, 74)
(208, 169, 133, 345, 815, 99, 105, 69)
(161, 144, 126, 373, 793, 113, 94, 62)
(125, 109, 102, 338, 738, 92, 79, 52)
(99, 106, 101, 308, 691, 102, 81, 44)
(97, 101, 107, 312, 581, 107, 81, 42)
(79, 81, 104, 234, 530, 157, 88, 40)
(77, 75, 87, 162, 471, 160, 78, 36)
(75, 74, 78, 154, 390, 171, 72, 34)
(71, 68, 83, 183, 427, 170, 70, 32)
(44, 51, 90, 187, 417, 174, 72, 34)
(54, 51, 79, 180, 478, 130, 64, 33)
(55, 62, 83, 186, 482, 141, 66, 34)
(89, 77, 88, 179, 467, 149, 85, 35)
(96, 82, 87, 153, 432, 166, 86, 37)
(102, 81, 73, 134, 426, 158, 88, 36)
(119, 91, 71, 115, 367, 164, 93, 35)
(124, 89, 70, 121, 408, 144, 93, 35)
(123, 91, 64, 125, 400, 132, 79, 37)
(139, 138, 52, 124, 414, 124, 93, 39)
(264, 251, 60, 117, 414, 147, 112, 76)
(281, 266, 63, 119, 432, 183, 128, 145)
(281, 266, 63, 119, 432, 183, 128, 145)
